I,II,III,aVR,aVL,aVF,V1,V2,V3,V4,V5,V6
-0.125,-0.110,0.015,0.117,-0.070,-0.047,0.100,-0.165,0.165,0.195,0.045,0.095
-0.125,-0.110,0.015,0.117,-0.070,-0.047,0.100,-0.165,0.165,0.195,0.045,0.095
-0.125,-0.110,0.015,0.117,-0.070,-0.047,0.100,-0.165,0.165,0.195,0.045,0.095
-0.125,-0.110,0.015,0.117,-0.070,-0.047,0.100,-0.165,0.165,0.195,0.045,0.095
-0.125,-0.110,0.015,0.117,-0.070,-0.047,0.100,-0.165,0.165,0.195,0.045,0.095
-0.125,-0.110,0.015,0.117,-0.070,-0.047,0.100,-0.165,0.165,0.195,0.045,0.095
-0.125,-0.110,0.015,0.117,-0.070,-0.047,0.100,-0.165,0.165,0.195,0.045,0.095
-0.122,-0.107,0.015,0.114,-0.068,-0.046,0.100,-0.165,0.162,0.195,0.045,0.092
-0.119,-0.104,0.015,0.111,-0.067,-0.045,0.100,-0.165,0.159,0.195,0.045,0.089
-0.120,-0.105,0.015,0.112,-0.067,-0.045,0.100,-0.165,0.160,0.194,0.045,0.090
-0.120,-0.105,0.015,0.112,-0.067,-0.045,0.100,-0.165,0.160,0.190,0.045,0.090
-0.120,-0.105,0.015,0.112,-0.067,-0.045,0.100,-0.165,0.160,0.190,0.045,0.090
-0.120,-0.105,0.015,0.112,-0.067,-0.045,0.100,-0.165,0.160,0.190,0.045,0.090
-0.120,-0.105,0.015,0.112,-0.067,-0.045,0.100,-0.165,0.160,0.190,0.045,0.090
-0.119,-0.104,0.015,0.111,-0.067,-0.045,0.100,-0.165,0.159,0.190,0.045,0.089
-0.115,-0.100,0.015,0.107,-0.065,-0.042,0.100,-0.165,0.155,0.190,0.045,0.085
-0.115,-0.100,0.015,0.107,-0.065,-0.042,0.100,-0.165,0.155,0.190,0.045,0.085
-0.115,-0.100,0.015,0.107,-0.065,-0.042,0.100,-0.165,0.155,0.191,0.045,0.085
-0.115,-0.100,0.015,0.107,-0.065,-0.042,0.100,-0.165,0.155,0.188,0.045,0.085
-0.115,-0.100,0.015,0.107,-0.065,-0.042,0.100,-0.165,0.155,0.185,0.045,0.085
-0.115,-0.100,0.015,0.107,-0.065,-0.042,0.100,-0.165,0.155,0.185,0.045,0.085
-0.111,-0.096,0.015,0.103,-0.063,-0.040,0.100,-0.165,0.151,0.185,0.045,0.081
-0.109,-0.095,0.015,0.102,-0.062,-0.040,0.100,-0.165,0.150,0.185,0.044,0.080
-0.110,-0.095,0.015,0.102,-0.062,-0.040,0.100,-0.165,0.150,0.185,0.047,0.080
-0.110,-0.095,0.015,0.102,-0.062,-0.040,0.100,-0.165,0.150,0.185,0.050,0.080
-0.110,-0.095,0.015,0.102,-0.062,-0.040,0.100,-0.165,0.150,0.185,0.050,0.080
-0.118,-0.095,0.023,0.106,-0.070,-0.036,0.100,-0.165,0.150,0.185,0.050,0.080
-0.120,-0.094,0.026,0.107,-0.073,-0.034,0.100,-0.166,0.150,0.186,0.053,0.081
-0.122,-0.097,0.025,0.109,-0.073,-0.036,0.100,-0.163,0.150,0.183,0.056,0.078
-0.125,-0.100,0.025,0.112,-0.075,-0.037,0.100,-0.160,0.150,0.180,0.055,0.075
-0.125,-0.100,0.025,0.112,-0.075,-0.037,0.100,-0.160,0.150,0.180,0.055,0.075
-0.129,-0.104,0.025,0.116,-0.077,-0.040,0.100,-0.160,0.150,0.180,0.055,0.075
-0.130,-0.105,0.025,0.117,-0.077,-0.040,0.100,-0.160,0.150,0.180,0.055,0.075
-0.132,-0.107,0.025,0.119,-0.078,-0.041,0.100,-0.160,0.150,0.180,0.055,0.075
-0.136,-0.111,0.025,0.123,-0.080,-0.042,0.100,-0.160,0.150,0.179,0.055,0.075
-0.135,-0.110,0.025,0.122,-0.080,-0.042,0.100,-0.160,0.150,0.175,0.055,0.075
-0.131,-0.106,0.025,0.118,-0.077,-0.040,0.100,-0.160,0.150,0.175,0.055,0.075
-0.130,-0.105,0.025,0.117,-0.077,-0.040,0.100,-0.160,0.150,0.175,0.055,0.075
-0.130,-0.105,0.025,0.117,-0.077,-0.040,0.100,-0.160,0.150,0.175,0.055,0.075
-0.130,-0.105,0.025,0.117,-0.077,-0.040,0.100,-0.160,0.150,0.175,0.055,0.075
-0.130,-0.105,0.025,0.117,-0.077,-0.040,0.100,-0.160,0.150,0.175,0.055,0.075
-0.126,-0.101,0.025,0.113,-0.075,-0.037,0.100,-0.160,0.150,0.175,0.055,0.075
-0.125,-0.100,0.025,0.112,-0.075,-0.037,0.100,-0.160,0.150,0.172,0.055,0.072
-0.125,-0.100,0.025,0.112,-0.075,-0.037,0.100,-0.160,0.150,0.169,0.055,0.069
-0.125,-0.100,0.025,0.112,-0.075,-0.037,0.100,-0.160,0.150,0.170,0.055,0.070
-0.125,-0.100,0.025,0.112,-0.075,-0.037,0.100,-0.160,0.150,0.170,0.055,0.070
-0.121,-0.096,0.025,0.108,-0.072,-0.035,0.100,-0.160,0.150,0.170,0.055,0.070
-0.120,-0.095,0.025,0.107,-0.072,-0.035,0.100,-0.160,0.150,0.171,0.055,0.070
-0.120,-0.095,0.025,0.107,-0.072,-0.035,0.100,-0.160,0.150,0.168,0.055,0.070
-0.120,-0.095,0.025,0.107,-0.072,-0.035,0.100,-0.160,0.150,0.165,0.055,0.070
-0.120,-0.095,0.025,0.107,-0.072,-0.035,0.100,-0.160,0.150,0.165,0.055,0.070
-0.120,-0.095,0.025,0.107,-0.072,-0.035,0.100,-0.160,0.150,0.165,0.055,0.070
-0.117,-0.092,0.025,0.104,-0.071,-0.033,0.100,-0.160,0.150,0.165,0.055,0.070
-0.114,-0.089,0.025,0.101,-0.069,-0.032,0.100,-0.160,0.150,0.165,0.055,0.070
-0.116,-0.090,0.026,0.103,-0.071,-0.032,0.100,-0.160,0.150,0.165,0.055,0.070
-0.120,-0.090,0.030,0.105,-0.075,-0.030,0.100,-0.160,0.150,0.165,0.055,0.070
-0.121,-0.090,0.030,0.106,-0.076,-0.030,0.104,-0.156,0.154,0.169,0.055,0.074
-0.116,-0.087,0.029,0.102,-0.073,-0.028,0.106,-0.155,0.155,0.171,0.055,0.075
-0.116,-0.084,0.032,0.100,-0.074,-0.026,0.104,-0.153,0.155,0.169,0.055,0.075
-0.121,-0.085,0.035,0.102,-0.078,-0.025,0.106,-0.150,0.155,0.171,0.055,0.075
-0.120,-0.085,0.035,0.102,-0.077,-0.025,0.110,-0.150,0.155,0.175,0.055,0.075
-0.119,-0.085,0.035,0.102,-0.076,-0.025,0.110,-0.146,0.155,0.175,0.059,0.075
-0.124,-0.086,0.038,0.105,-0.080,-0.024,0.109,-0.144,0.154,0.174,0.064,0.075
-0.123,-0.082,0.042,0.102,-0.082,-0.020,0.112,-0.146,0.157,0.177,0.065,0.075
-0.120,-0.073,0.047,0.096,-0.083,-0.013,0.115,-0.144,0.160,0.180,0.066,0.075
-0.125,-0.070,0.055,0.097,-0.090,-0.007,0.115,-0.140,0.160,0.180,0.070,0.075
-0.124,-0.066,0.058,0.095,-0.091,-0.003,0.115,-0.140,0.164,0.184,0.070,0.075
-0.132,-0.062,0.070,0.097,-0.101,0.004,0.114,-0.137,0.165,0.185,0.072,0.074
-0.133,-0.058,0.075,0.095,-0.103,0.008,0.117,-0.135,0.166,0.187,0.078,0.077
-0.123,-0.054,0.069,0.088,-0.096,0.008,0.120,-0.134,0.171,0.190,0.080,0.080
-0.120,-0.050,0.070,0.085,-0.095,0.010,0.120,-0.130,0.175,0.190,0.080,0.080
-0.120,-0.054,0.066,0.087,-0.093,0.006,0.124,-0.130,0.179,0.190,0.084,0.080
-0.120,-0.056,0.064,0.087,-0.092,0.004,0.128,-0.131,0.180,0.190,0.085,0.080
-0.120,-0.055,0.066,0.087,-0.093,0.005,0.132,-0.127,0.182,0.190,0.085,0.080
-0.119,-0.055,0.064,0.087,-0.091,0.004,0.135,-0.118,0.185,0.190,0.085,0.080
-0.115,-0.055,0.060,0.085,-0.087,0.002,0.135,-0.115,0.185,0.190,0.085,0.080
-0.115,-0.055,0.060,0.085,-0.087,0.002,0.139,-0.112,0.188,0.194,0.093,0.084
-0.112,-0.055,0.057,0.083,-0.084,0.001,0.144,-0.104,0.196,0.199,0.099,0.088
-0.109,-0.055,0.054,0.082,-0.081,0.000,0.144,-0.098,0.202,0.200,0.100,0.092
-0.110,-0.055,0.055,0.082,-0.082,0.000,0.139,-0.094,0.206,0.200,0.101,0.095
-0.110,-0.055,0.055,0.082,-0.082,0.000,0.135,-0.090,0.210,0.205,0.105,0.095
-0.105,-0.055,0.051,0.080,-0.077,-0.001,0.131,-0.090,0.214,0.210,0.106,0.095
-0.108,-0.058,0.050,0.083,-0.079,-0.004,0.127,-0.090,0.220,0.208,0.102,0.093
-0.109,-0.061,0.048,0.084,-0.079,-0.006,0.122,-0.090,0.215,0.203,0.099,0.101
-0.104,-0.060,0.044,0.082,-0.074,-0.007,0.121,-0.090,0.203,0.199,0.100,0.110
-0.105,-0.060,0.045,0.082,-0.075,-0.007,0.120,-0.090,0.195,0.195,0.100,0.105
-0.105,-0.060,0.045,0.082,-0.075,-0.007,0.097,-0.100,0.183,0.191,0.096,0.105
-0.102,-0.060,0.042,0.081,-0.072,-0.009,0.073,-0.124,0.174,0.190,0.095,0.106
-0.099,-0.060,0.039,0.080,-0.069,-0.010,0.061,-0.156,0.165,0.189,0.095,0.103
-0.100,-0.060,0.040,0.080,-0.070,-0.010,0.060,-0.178,0.152,0.184,0.095,0.100
-0.100,-0.060,0.040,0.080,-0.070,-0.010,0.060,-0.180,0.145,0.180,0.095,0.100
-0.092,-0.060,0.032,0.076,-0.062,-0.014,0.060,-0.180,0.149,0.176,0.091,0.100
-0.086,-0.059,0.026,0.072,-0.056,-0.016,0.060,-0.180,0.151,0.171,0.090,0.100
-0.085,-0.062,0.024,0.073,-0.054,-0.019,0.060,-0.180,0.150,0.170,0.090,0.098
-0.084,-0.065,0.018,0.075,-0.050,-0.023,0.060,-0.180,0.150,0.169,0.090,0.095
-0.075,-0.065,0.010,0.070,-0.042,-0.027,0.060,-0.180,0.150,0.165,0.090,0.095
-0.071,-0.065,0.006,0.067,-0.038,-0.030,0.060,-0.180,0.150,0.165,0.086,0.095
-0.068,-0.066,0.002,0.066,-0.035,-0.031,0.060,-0.180,0.149,0.166,0.084,0.092
-0.060,-0.064,-0.003,0.062,-0.028,-0.033,0.060,-0.180,0.152,0.163,0.086,0.090
-0.055,-0.068,-0.013,0.061,-0.021,-0.040,0.060,-0.180,0.155,0.160,0.084,0.090
-0.060,-0.080,-0.020,0.070,-0.020,-0.050,0.060,-0.180,0.155,0.160,0.080,0.090
-0.060,-0.076,-0.016,0.069,-0.022,-0.046,0.064,-0.180,0.159,0.160,0.080,0.090
-0.060,-0.075,-0.015,0.068,-0.022,-0.045,0.065,-0.179,0.161,0.157,0.080,0.087
-0.060,-0.073,-0.013,0.067,-0.023,-0.043,0.066,-0.182,0.158,0.154,0.080,0.085
-0.060,-0.070,-0.010,0.065,-0.025,-0.040,0.071,-0.185,0.154,0.155,0.079,0.085
-0.060,-0.070,-0.010,0.065,-0.025,-0.040,0.075,-0.185,0.150,0.155,0.075,0.085
-0.060,-0.066,-0.006,0.063,-0.027,-0.036,0.075,-0.185,0.146,0.151,0.075,0.086
-0.060,-0.064,-0.004,0.063,-0.027,-0.034,0.078,-0.185,0.142,0.149,0.075,0.079
-0.061,-0.066,-0.006,0.064,-0.027,-0.036,0.080,-0.185,0.138,0.151,0.075,0.072
-0.068,-0.072,-0.004,0.070,-0.032,-0.038,0.081,-0.185,0.135,0.149,0.074,0.069
-0.080,-0.080,0.000,0.080,-0.040,-0.040,0.085,-0.185,0.135,0.145,0.070,0.065
-0.084,-0.084,0.000,0.084,-0.041,-0.042,0.085,-0.185,0.131,0.145,0.070,0.057
-0.091,-0.088,0.003,0.089,-0.047,-0.042,0.085,-0.185,0.130,0.146,0.067,0.052
-0.097,-0.092,0.005,0.094,-0.051,-0.043,0.085,-0.185,0.130,0.143,0.064,0.048
-0.102,-0.096,0.006,0.099,-0.053,-0.045,0.085,-0.185,0.130,0.140,0.065,0.044
-0.110,-0.100,0.010,0.105,-0.060,-0.045,0.085,-0.185,0.130,0.140,0.065,0.040
-0.106,-0.096,0.010,0.101,-0.058,-0.042,0.085,-0.185,0.126,0.140,0.061,0.040
-0.104,-0.094,0.009,0.099,-0.056,-0.042,0.085,-0.182,0.125,0.137,0.059,0.040
-0.107,-0.095,0.012,0.101,-0.059,-0.042,0.085,-0.179,0.125,0.135,0.061,0.040
-0.111,-0.095,0.016,0.103,-0.063,-0.039,0.085,-0.180,0.125,0.135,0.059,0.040
-0.115,-0.095,0.020,0.105,-0.067,-0.037,0.085,-0.180,0.125,0.135,0.055,0.040
-0.115,-0.095,0.020,0.105,-0.067,-0.037,0.085,-0.176,0.121,0.135,0.055,0.036
-0.117,-0.095,0.022,0.106,-0.069,-0.036,0.085,-0.175,0.120,0.132,0.056,0.035
-0.122,-0.095,0.027,0.108,-0.074,-0.034,0.085,-0.175,0.120,0.129,0.053,0.035
-0.125,-0.095,0.030,0.110,-0.077,-0.032,0.085,-0.175,0.120,0.130,0.050,0.035
-0.125,-0.095,0.030,0.110,-0.077,-0.032,0.085,-0.175,0.120,0.130,0.050,0.035
-0.125,-0.095,0.030,0.110,-0.077,-0.032,0.085,-0.171,0.120,0.130,0.046,0.035
-0.125,-0.095,0.030,0.110,-0.077,-0.032,0.088,-0.170,0.117,0.130,0.044,0.036
-0.125,-0.095,0.030,0.110,-0.077,-0.032,0.090,-0.170,0.114,0.130,0.046,0.033
-0.125,-0.095,0.030,0.110,-0.077,-0.032,0.091,-0.170,0.115,0.130,0.044,0.030
-0.125,-0.095,0.030,0.110,-0.077,-0.032,0.095,-0.170,0.115,0.130,0.040,0.030
-0.125,-0.095,0.030,0.110,-0.077,-0.032,0.095,-0.166,0.115,0.130,0.040,0.030
-0.125,-0.095,0.030,0.110,-0.077,-0.032,0.098,-0.164,0.112,0.130,0.041,0.030
-0.125,-0.095,0.030,0.110,-0.077,-0.032,0.101,-0.166,0.109,0.130,0.038,0.030
-0.125,-0.095,0.030,0.110,-0.077,-0.032,0.100,-0.164,0.110,0.130,0.035,0.029
-0.125,-0.095,0.030,0.110,-0.077,-0.032,0.100,-0.160,0.110,0.130,0.035,0.025
-0.125,-0.095,0.030,0.110,-0.077,-0.032,0.100,-0.160,0.110,0.130,0.035,0.025
-0.125,-0.095,0.030,0.110,-0.077,-0.032,0.100,-0.160,0.109,0.130,0.038,0.025
-0.125,-0.095,0.030,0.110,-0.077,-0.032,0.100,-0.160,0.112,0.130,0.041,0.025
-0.125,-0.095,0.030,0.110,-0.077,-0.032,0.100,-0.159,0.115,0.130,0.040,0.025
-0.125,-0.095,0.030,0.110,-0.077,-0.032,0.100,-0.155,0.115,0.130,0.040,0.025
-0.125,-0.095,0.030,0.110,-0.077,-0.032,0.100,-0.155,0.119,0.130,0.044,0.025
-0.126,-0.096,0.030,0.111,-0.077,-0.032,0.100,-0.155,0.121,0.130,0.046,0.028
-0.123,-0.093,0.030,0.108,-0.076,-0.031,0.100,-0.154,0.118,0.130,0.044,0.031
-0.120,-0.090,0.030,0.105,-0.075,-0.030,0.100,-0.157,0.115,0.130,0.046,0.030
-0.120,-0.090,0.030,0.105,-0.075,-0.030,0.100,-0.165,0.115,0.130,0.050,0.030
-0.120,-0.090,0.030,0.105,-0.075,-0.030,0.100,-0.161,0.115,0.130,0.050,0.030
-0.120,-0.091,0.030,0.105,-0.075,-0.030,0.100,-0.159,0.115,0.130,0.050,0.030
-0.120,-0.088,0.031,0.104,-0.075,-0.028,0.100,-0.160,0.115,0.130,0.050,0.030
-0.121,-0.085,0.036,0.102,-0.078,-0.024,0.100,-0.160,0.115,0.130,0.050,0.030
-0.125,-0.085,0.040,0.105,-0.082,-0.022,0.100,-0.160,0.115,0.130,0.050,0.030
-0.125,-0.085,0.040,0.105,-0.082,-0.022,0.100,-0.160,0.115,0.130,0.050,0.030
-0.125,-0.085,0.040,0.105,-0.082,-0.022,0.100,-0.157,0.115,0.130,0.050,0.030
-0.125,-0.085,0.040,0.105,-0.082,-0.022,0.100,-0.154,0.115,0.130,0.050,0.030
-0.124,-0.084,0.040,0.104,-0.082,-0.022,0.100,-0.155,0.114,0.130,0.050,0.030
-0.120,-0.080,0.040,0.100,-0.080,-0.020,0.100,-0.155,0.110,0.130,0.050,0.030
-0.119,-0.080,0.040,0.100,-0.079,-0.020,0.100,-0.155,0.110,0.130,0.050,0.030
-0.123,-0.080,0.043,0.102,-0.083,-0.018,0.100,-0.155,0.110,0.130,0.050,0.030
-0.125,-0.080,0.045,0.102,-0.085,-0.017,0.101,-0.155,0.110,0.130,0.050,0.030
-0.126,-0.081,0.046,0.103,-0.086,-0.017,0.099,-0.155,0.110,0.130,0.050,0.031
-0.130,-0.080,0.050,0.105,-0.090,-0.015,0.090,-0.155,0.110,0.130,0.050,0.035
-0.117,-0.064,0.053,0.090,-0.085,-0.005,0.082,-0.161,0.110,0.130,0.050,0.035
-0.117,-0.050,0.066,0.083,-0.091,0.008,0.073,-0.185,0.110,0.132,0.052,0.040
-0.121,-0.039,0.082,0.080,-0.101,0.022,0.068,-0.197,0.110,0.138,0.059,0.050
-0.120,-0.028,0.092,0.074,-0.106,0.032,0.055,-0.205,0.110,0.149,0.076,0.065
-0.115,-0.015,0.100,0.065,-0.107,0.042,0.025,-0.225,0.110,0.170,0.105,0.090
-0.099,0.020,0.119,0.039,-0.109,0.069,-0.004,-0.210,0.129,0.207,0.143,0.125
-0.085,0.059,0.144,0.013,-0.115,0.101,-0.028,-0.195,0.192,0.271,0.200,0.170
-0.058,0.089,0.147,-0.015,-0.103,0.118,-0.052,-0.184,0.260,0.334,0.255,0.219
-0.022,0.109,0.131,-0.044,-0.077,0.120,-0.075,-0.183,0.305,0.390,0.304,0.268
0.005,0.130,0.125,-0.068,-0.060,0.127,-0.105,-0.260,0.320,0.450,0.370,0.325
0.034,0.168,0.134,-0.101,-0.050,0.151,-0.169,-0.484,0.264,0.498,0.446,0.397
0.058,0.221,0.163,-0.140,-0.052,0.192,-0.227,-0.704,0.195,0.549,0.518,0.465
0.116,0.262,0.146,-0.190,-0.015,0.204,-0.305,-0.880,0.153,0.616,0.596,0.539
0.208,0.294,0.086,-0.251,0.060,0.190,-0.412,-1.011,0.166,0.712,0.700,0.637
0.300,0.335,0.035,-0.318,0.132,0.185,-0.525,-1.090,0.235,0.835,0.835,0.760
0.416,0.373,-0.043,-0.394,0.229,0.165,-0.654,-1.180,0.301,0.967,0.984,0.893
0.563,0.432,-0.131,-0.497,0.347,0.150,-0.804,-1.251,0.381,1.130,1.160,1.052
0.697,0.511,-0.185,-0.604,0.441,0.163,-0.968,-1.360,0.401,1.277,1.332,1.215
0.809,0.605,-0.204,-0.707,0.506,0.200,-1.119,-1.483,0.398,1.403,1.491,1.376
0.925,0.695,-0.230,-0.810,0.577,0.232,-1.220,-1.505,0.475,1.520,1.630,1.515
1.012,0.716,-0.296,-0.863,0.654,0.209,-1.262,-1.448,0.558,1.545,1.655,1.544
1.041,0.600,-0.441,-0.820,0.741,0.079,-1.227,-1.384,0.613,1.468,1.551,1.442
1.037,0.439,-0.598,-0.737,0.817,-0.079,-1.167,-1.326,0.609,1.321,1.370,1.274
1.037,0.327,-0.709,-0.681,0.873,-0.191,-1.117,-1.282,0.572,1.172,1.198,1.122
1.040,0.235,-0.805,-0.637,0.922,-0.285,-1.065,-1.225,0.540,1.050,1.060,0.995
1.012,0.089,-0.923,-0.550,0.967,-0.417,-1.015,-1.068,0.485,0.888,0.867,0.825
0.955,-0.056,-1.011,-0.450,0.983,-0.533,-0.940,-0.986,0.431,0.690,0.669,0.650
0.849,-0.182,-1.031,-0.333,0.940,-0.607,-0.833,-0.927,0.375,0.513,0.495,0.496
0.721,-0.297,-1.019,-0.212,0.870,-0.658,-0.708,-0.825,0.298,0.343,0.318,0.346
0.615,-0.395,-1.010,-0.110,0.813,-0.702,-0.580,-0.740,0.180,0.140,0.130,0.180
0.491,-0.464,-0.954,-0.013,0.723,-0.708,-0.457,-0.689,0.014,-0.038,-0.024,0.040
0.412,-0.460,-0.871,0.025,0.642,-0.665,-0.360,-0.652,-0.114,-0.158,-0.124,0.002
0.339,-0.437,-0.776,0.050,0.558,-0.607,-0.282,-0.586,-0.134,-0.171,-0.143,0.002
0.250,-0.416,-0.666,0.084,0.458,-0.541,-0.214,-0.509,-0.090,-0.118,-0.113,-0.014
0.180,-0.365,-0.545,0.093,0.363,-0.455,-0.155,-0.460,-0.065,-0.080,-0.095,-0.025
0.113,-0.316,-0.428,0.102,0.271,-0.372,-0.097,-0.407,-0.037,-0.036,-0.072,-0.034
0.044,-0.275,-0.319,0.116,0.182,-0.296,-0.059,-0.364,-0.010,0.007,-0.046,-0.030
0.009,-0.235,-0.245,0.113,0.127,-0.240,-0.030,-0.326,0.022,0.039,-0.027,-0.021
-0.006,-0.204,-0.197,0.105,0.096,-0.201,-0.005,-0.284,0.059,0.060,-0.018,-0.013
-0.035,-0.185,-0.150,0.110,0.058,-0.167,0.010,-0.240,0.095,0.080,-0.010,-0.005
-0.036,-0.165,-0.129,0.101,0.047,-0.146,0.025,-0.196,0.135,0.100,0.002,0.003
-0.037,-0.147,-0.110,0.092,0.036,-0.129,0.049,-0.155,0.169,0.116,0.011,0.011
-0.042,-0.134,-0.092,0.088,0.025,-0.112,0.065,-0.115,0.187,0.123,0.021,0.020
-0.046,-0.122,-0.076,0.084,0.015,-0.099,0.073,-0.084,0.198,0.126,0.033,0.026
-0.050,-0.110,-0.060,0.080,0.005,-0.085,0.085,-0.070,0.210,0.130,0.040,0.025
-0.046,-0.097,-0.052,0.071,0.003,-0.074,0.088,-0.058,0.215,0.130,0.044,0.025
-0.047,-0.091,-0.044,0.069,-0.001,-0.068,0.102,-0.043,0.215,0.129,0.045,0.025
-0.052,-0.088,-0.036,0.070,-0.008,-0.062,0.114,-0.028,0.215,0.132,0.045,0.025
-0.057,-0.085,-0.028,0.071,-0.014,-0.056,0.116,-0.018,0.214,0.135,0.045,0.025
-0.065,-0.085,-0.020,0.075,-0.022,-0.052,0.120,-0.015,0.215,0.135,0.045,0.025
-0.069,-0.081,-0.012,0.075,-0.029,-0.047,0.124,-0.011,0.227,0.135,0.045,0.025
-0.072,-0.076,-0.004,0.074,-0.034,-0.040,0.125,-0.007,0.234,0.138,0.045,0.025
-0.079,-0.075,0.004,0.077,-0.041,-0.035,0.125,-0.003,0.235,0.141,0.045,0.025
-0.086,-0.074,0.011,0.080,-0.048,-0.031,0.125,0.001,0.235,0.140,0.045,0.025
-0.085,-0.070,0.015,0.077,-0.050,-0.027,0.125,0.005,0.235,0.140,0.045,0.025
-0.089,-0.070,0.019,0.079,-0.054,-0.026,0.129,0.009,0.235,0.140,0.045,0.025
-0.093,-0.067,0.026,0.080,-0.059,-0.020,0.134,0.013,0.235,0.140,0.048,0.025
-0.097,-0.065,0.032,0.081,-0.064,-0.016,0.135,0.017,0.235,0.140,0.051,0.025
-0.100,-0.064,0.036,0.082,-0.068,-0.014,0.135,0.021,0.236,0.140,0.050,0.025
-0.100,-0.060,0.040,0.080,-0.070,-0.010,0.135,0.025,0.240,0.140,0.050,0.025
-0.100,-0.060,0.040,0.080,-0.070,-0.010,0.135,0.029,0.244,0.140,0.050,0.025
-0.101,-0.061,0.040,0.081,-0.070,-0.010,0.135,0.033,0.248,0.140,0.050,0.025
-0.098,-0.058,0.040,0.078,-0.069,-0.009,0.135,0.037,0.250,0.140,0.050,0.025
-0.095,-0.055,0.040,0.075,-0.067,-0.007,0.135,0.041,0.250,0.141,0.050,0.025
-0.095,-0.055,0.040,0.075,-0.067,-0.007,0.135,0.045,0.250,0.145,0.050,0.025
-0.091,-0.051,0.040,0.071,-0.065,-0.005,0.139,0.049,0.250,0.145,0.050,0.025
-0.090,-0.050,0.040,0.070,-0.065,-0.005,0.140,0.053,0.253,0.145,0.049,0.025
-0.088,-0.048,0.040,0.068,-0.064,-0.004,0.142,0.057,0.257,0.145,0.052,0.025
-0.084,-0.044,0.040,0.064,-0.062,-0.002,0.145,0.061,0.261,0.145,0.055,0.025
-0.085,-0.045,0.040,0.065,-0.062,-0.002,0.145,0.065,0.265,0.145,0.055,0.025
-0.086,-0.045,0.040,0.066,-0.062,-0.002,0.145,0.069,0.265,0.145,0.055,0.025
-0.081,-0.042,0.039,0.062,-0.060,-0.001,0.145,0.070,0.268,0.145,0.055,0.028
-0.081,-0.039,0.042,0.060,-0.062,0.001,0.145,0.070,0.270,0.145,0.055,0.031
-0.086,-0.040,0.045,0.062,-0.065,0.002,0.145,0.070,0.271,0.145,0.055,0.030
-0.085,-0.040,0.045,0.062,-0.065,0.002,0.145,0.070,0.275,0.145,0.055,0.030
-0.085,-0.036,0.049,0.060,-0.066,0.006,0.145,0.074,0.275,0.145,0.055,0.034
-0.087,-0.034,0.053,0.061,-0.070,0.009,0.148,0.078,0.278,0.145,0.055,0.036
-0.093,-0.036,0.057,0.064,-0.075,0.011,0.151,0.084,0.280,0.145,0.055,0.034
-0.095,-0.034,0.060,0.064,-0.077,0.013,0.150,0.091,0.281,0.145,0.056,0.036
-0.090,-0.030,0.060,0.060,-0.075,0.015,0.150,0.095,0.285,0.145,0.060,0.040
-0.090,-0.030,0.060,0.060,-0.075,0.015,0.150,0.099,0.285,0.145,0.060,0.040
-0.091,-0.031,0.060,0.061,-0.075,0.015,0.150,0.104,0.285,0.145,0.060,0.040
-0.088,-0.028,0.060,0.058,-0.074,0.016,0.150,0.105,0.284,0.144,0.060,0.040
-0.085,-0.025,0.060,0.055,-0.072,0.017,0.150,0.106,0.286,0.147,0.060,0.040
-0.085,-0.025,0.060,0.055,-0.072,0.017,0.150,0.110,0.295,0.160,0.060,0.040
-0.085,-0.025,0.060,0.055,-0.072,0.017,0.150,0.110,0.300,0.165,0.060,0.040
-0.082,-0.022,0.060,0.052,-0.071,0.019,0.150,0.113,0.300,0.165,0.060,0.043
-0.079,-0.019,0.060,0.049,-0.070,0.020,0.150,0.117,0.302,0.165,0.060,0.046
-0.080,-0.020,0.060,0.050,-0.070,0.020,0.150,0.122,0.305,0.165,0.060,0.045
-0.080,-0.020,0.060,0.050,-0.070,0.020,0.150,0.130,0.305,0.165,0.060,0.045
-0.076,-0.016,0.060,0.046,-0.068,0.022,0.150,0.135,0.309,0.165,0.064,0.045
-0.074,-0.014,0.060,0.044,-0.067,0.022,0.150,0.135,0.313,0.165,0.065,0.045
-0.076,-0.016,0.060,0.046,-0.067,0.022,0.150,0.137,0.317,0.165,0.065,0.045
-0.074,-0.014,0.060,0.044,-0.066,0.022,0.150,0.140,0.321,0.165,0.065,0.045
-0.070,-0.010,0.060,0.040,-0.065,0.025,0.150,0.140,0.325,0.165,0.065,0.045
-0.074,-0.010,0.064,0.041,-0.069,0.027,0.150,0.144,0.328,0.165,0.065,0.045
-0.076,-0.011,0.065,0.043,-0.071,0.027,0.150,0.148,0.339,0.164,0.064,0.045
-0.073,-0.008,0.065,0.040,-0.069,0.028,0.150,0.154,0.348,0.167,0.067,0.045
-0.070,-0.005,0.065,0.037,-0.067,0.030,0.150,0.162,0.351,0.170,0.070,0.044
-0.070,-0.005,0.065,0.037,-0.067,0.030,0.150,0.165,0.355,0.170,0.070,0.040
-0.070,-0.005,0.065,0.037,-0.067,0.030,0.150,0.168,0.354,0.174,0.074,0.039
-0.071,-0.006,0.065,0.038,-0.067,0.030,0.149,0.179,0.363,0.175,0.075,0.046
-0.068,-0.003,0.065,0.035,-0.066,0.031,0.152,0.190,0.375,0.177,0.075,0.053
-0.065,0.000,0.065,0.032,-0.065,0.032,0.155,0.196,0.381,0.180,0.074,0.055
-0.065,0.000,0.065,0.032,-0.065,0.032,0.155,0.200,0.385,0.180,0.075,0.055
-0.065,0.000,0.065,0.032,-0.065,0.032,0.159,0.208,0.397,0.184,0.088,0.068
-0.066,0.000,0.065,0.033,-0.065,0.032,0.160,0.217,0.404,0.186,0.091,0.068
-0.063,0.002,0.065,0.030,-0.064,0.033,0.160,0.222,0.407,0.184,0.090,0.064
-0.060,0.005,0.066,0.027,-0.064,0.036,0.160,0.227,0.411,0.186,0.090,0.065
-0.065,0.005,0.070,0.030,-0.068,0.037,0.160,0.235,0.415,0.190,0.090,0.065
-0.066,0.005,0.070,0.031,-0.068,0.037,0.160,0.239,0.419,0.190,0.090,0.065
-0.062,0.008,0.070,0.027,-0.066,0.039,0.159,0.244,0.421,0.189,0.090,0.066
-0.060,0.010,0.070,0.025,-0.065,0.040,0.162,0.258,0.433,0.194,0.090,0.063
-0.060,0.010,0.070,0.025,-0.065,0.040,0.165,0.272,0.447,0.202,0.091,0.060
-0.060,0.010,0.070,0.025,-0.065,0.040,0.165,0.275,0.450,0.205,0.095,0.060
-0.060,0.010,0.070,0.025,-0.065,0.040,0.169,0.282,0.457,0.209,0.095,0.060
-0.057,0.013,0.070,0.022,-0.064,0.041,0.173,0.295,0.473,0.214,0.095,0.060
-0.055,0.015,0.070,0.020,-0.063,0.042,0.177,0.301,0.483,0.214,0.094,0.059
-0.055,0.015,0.070,0.020,-0.063,0.042,0.180,0.309,0.487,0.217,0.097,0.062
-0.055,0.015,0.070,0.020,-0.063,0.042,0.180,0.330,0.500,0.230,0.110,0.075
-0.056,0.014,0.070,0.021,-0.064,0.041,0.180,0.338,0.508,0.231,0.115,0.080
-0.046,0.024,0.070,0.011,-0.058,0.047,0.180,0.348,0.516,0.229,0.115,0.080
-0.036,0.034,0.070,0.001,-0.053,0.052,0.180,0.362,0.524,0.234,0.115,0.082
-0.035,0.035,0.070,0.000,-0.053,0.052,0.180,0.371,0.533,0.241,0.115,0.085
-0.035,0.035,0.070,0.000,-0.053,0.052,0.180,0.375,0.545,0.245,0.115,0.085
-0.035,0.035,0.070,0.000,-0.053,0.052,0.184,0.395,0.557,0.253,0.123,0.089
-0.035,0.035,0.070,0.000,-0.053,0.052,0.188,0.411,0.566,0.258,0.128,0.090
-0.035,0.035,0.070,0.000,-0.053,0.052,0.194,0.419,0.575,0.262,0.132,0.092
-0.035,0.035,0.070,0.000,-0.053,0.052,0.201,0.436,0.589,0.266,0.136,0.095
-0.035,0.035,0.070,0.000,-0.053,0.052,0.205,0.460,0.605,0.270,0.140,0.095
-0.032,0.038,0.070,-0.003,-0.051,0.054,0.209,0.472,0.612,0.278,0.152,0.107
-0.021,0.049,0.070,-0.014,-0.046,0.059,0.213,0.489,0.630,0.283,0.159,0.114
-0.012,0.058,0.070,-0.023,-0.041,0.064,0.217,0.512,0.647,0.288,0.162,0.117
-0.010,0.060,0.070,-0.025,-0.040,0.065,0.221,0.527,0.659,0.297,0.166,0.121
-0.010,0.060,0.070,-0.025,-0.040,0.065,0.225,0.535,0.675,0.305,0.170,0.125
-0.006,0.064,0.070,-0.029,-0.039,0.066,0.225,0.555,0.687,0.309,0.171,0.125
-0.002,0.068,0.070,-0.033,-0.036,0.069,0.223,0.569,0.698,0.316,0.168,0.128
0.002,0.072,0.070,-0.037,-0.034,0.071,0.230,0.586,0.715,0.324,0.176,0.130
0.005,0.075,0.070,-0.040,-0.033,0.072,0.242,0.610,0.735,0.332,0.186,0.131
0.005,0.075,0.070,-0.040,-0.033,0.072,0.245,0.625,0.750,0.340,0.185,0.135
0.009,0.082,0.073,-0.046,-0.032,0.077,0.245,0.641,0.766,0.348,0.197,0.139
0.012,0.098,0.085,-0.055,-0.037,0.091,0.248,0.659,0.784,0.355,0.203,0.143
0.019,0.109,0.089,-0.064,-0.035,0.099,0.250,0.681,0.806,0.369,0.210,0.147
0.025,0.110,0.084,-0.068,-0.030,0.097,0.251,0.698,0.823,0.381,0.222,0.151
0.025,0.110,0.085,-0.068,-0.030,0.097,0.255,0.710,0.835,0.380,0.225,0.155
0.033,0.114,0.081,-0.074,-0.024,0.097,0.255,0.735,0.854,0.392,0.229,0.159
0.035,0.115,0.080,-0.075,-0.023,0.097,0.255,0.750,0.877,0.400,0.234,0.164
0.039,0.117,0.078,-0.078,-0.020,0.097,0.255,0.763,0.890,0.400,0.233,0.164
0.046,0.121,0.075,-0.084,-0.015,0.097,0.254,0.787,0.906,0.409,0.239,0.168
0.050,0.125,0.075,-0.088,-0.013,0.100,0.250,0.815,0.935,0.430,0.260,0.185
0.071,0.141,0.071,-0.106,-0.001,0.106,0.250,0.831,0.956,0.443,0.269,0.189
0.080,0.150,0.070,-0.115,0.005,0.110,0.247,0.849,0.974,0.450,0.275,0.198
0.081,0.149,0.068,-0.115,0.007,0.109,0.244,0.871,0.997,0.462,0.285,0.210
0.087,0.151,0.065,-0.120,0.011,0.108,0.245,0.888,1.021,0.479,0.299,0.216
0.095,0.160,0.065,-0.128,0.015,0.112,0.245,0.900,1.040,0.490,0.310,0.220
0.104,0.165,0.061,-0.134,0.021,0.112,0.241,0.916,1.052,0.498,0.305,0.223
0.104,0.165,0.060,-0.134,0.022,0.112,0.239,0.927,1.069,0.503,0.316,0.234
0.109,0.167,0.058,-0.138,0.025,0.112,0.241,0.934,1.091,0.508,0.329,0.244
0.115,0.170,0.055,-0.143,0.030,0.112,0.239,0.950,1.109,0.518,0.331,0.245
0.115,0.170,0.055,-0.143,0.030,0.112,0.235,0.970,1.125,0.530,0.340,0.245
0.127,0.174,0.047,-0.151,0.039,0.110,0.235,0.978,1.144,0.538,0.353,0.253
0.137,0.178,0.041,-0.157,0.047,0.110,0.236,0.990,1.167,0.546,0.359,0.258
0.144,0.182,0.038,-0.163,0.053,0.110,0.233,0.995,1.180,0.554,0.362,0.264
0.151,0.185,0.034,-0.169,0.058,0.110,0.229,0.989,1.188,0.562,0.366,0.271
0.155,0.185,0.030,-0.170,0.062,0.107,0.230,0.990,1.200,0.565,0.370,0.275
0.159,0.185,0.026,-0.172,0.066,0.105,0.231,0.990,1.205,0.565,0.374,0.279
0.163,0.185,0.023,-0.174,0.070,0.104,0.225,0.990,1.207,0.568,0.378,0.283
0.167,0.184,0.016,-0.175,0.075,0.099,0.216,0.990,1.215,0.570,0.382,0.287
0.170,0.179,0.009,-0.175,0.081,0.094,0.208,0.991,1.219,0.572,0.386,0.291
0.170,0.175,0.005,-0.173,0.082,0.090,0.200,0.990,1.210,0.580,0.390,0.295
0.174,0.175,0.001,-0.175,0.086,0.088,0.192,0.974,1.206,0.577,0.389,0.291
0.178,0.172,-0.006,-0.175,0.092,0.083,0.184,0.962,1.202,0.571,0.400,0.289
0.182,0.170,-0.013,-0.176,0.098,0.078,0.176,0.944,1.198,0.570,0.405,0.291
0.185,0.170,-0.016,-0.177,0.100,0.076,0.168,0.920,1.194,0.569,0.399,0.289
0.185,0.165,-0.020,-0.175,0.102,0.072,0.160,0.900,1.190,0.565,0.400,0.285
0.189,0.160,-0.029,-0.175,0.109,0.066,0.152,0.876,1.187,0.560,0.396,0.285
0.188,0.160,-0.028,-0.174,0.108,0.066,0.144,0.856,1.171,0.561,0.395,0.286
0.183,0.158,-0.025,-0.170,0.103,0.066,0.136,0.830,1.150,0.555,0.393,0.283
0.179,0.155,-0.024,-0.167,0.101,0.065,0.128,0.798,1.129,0.543,0.390,0.280
0.175,0.155,-0.020,-0.165,0.097,0.067,0.120,0.770,1.100,0.535,0.390,0.280
0.167,0.147,-0.020,-0.157,0.093,0.063,0.112,0.734,1.072,0.523,0.379,0.280
0.158,0.141,-0.017,-0.150,0.088,0.062,0.104,0.698,1.041,0.514,0.365,0.281
0.153,0.139,-0.014,-0.145,0.083,0.062,0.098,0.662,1.010,0.504,0.356,0.275
0.149,0.133,-0.015,-0.140,0.081,0.059,0.094,0.626,0.976,0.493,0.347,0.262
0.140,0.125,-0.015,-0.132,0.077,0.055,0.090,0.590,0.935,0.485,0.335,0.255
0.131,0.121,-0.011,-0.126,0.071,0.055,0.086,0.546,0.895,0.461,0.323,0.247
0.128,0.118,-0.010,-0.123,0.069,0.054,0.082,0.501,0.852,0.439,0.314,0.239
0.118,0.110,-0.008,-0.113,0.062,0.050,0.078,0.461,0.809,0.422,0.305,0.231
0.102,0.097,-0.005,-0.099,0.054,0.046,0.074,0.427,0.771,0.406,0.292,0.223
0.095,0.090,-0.005,-0.092,0.050,0.042,0.070,0.395,0.735,0.390,0.280,0.215
0.083,0.083,-0.001,-0.083,0.042,0.041,0.070,0.359,0.699,0.374,0.272,0.203
0.070,0.071,0.001,-0.071,0.035,0.035,0.070,0.323,0.663,0.361,0.262,0.194
0.061,0.061,0.000,-0.061,0.030,0.029,0.070,0.287,0.629,0.348,0.248,0.186
0.052,0.053,0.001,-0.053,0.025,0.026,0.070,0.251,0.597,0.331,0.238,0.178
0.040,0.045,0.005,-0.043,0.017,0.025,0.070,0.220,0.565,0.315,0.230,0.170
0.032,0.041,0.009,-0.036,0.011,0.025,0.066,0.192,0.533,0.299,0.218,0.162
0.024,0.037,0.014,-0.031,0.005,0.025,0.065,0.163,0.501,0.286,0.208,0.154
0.018,0.033,0.015,-0.026,0.001,0.024,0.065,0.139,0.470,0.274,0.202,0.146
0.014,0.029,0.016,-0.022,-0.001,0.022,0.065,0.120,0.444,0.262,0.192,0.138
0.005,0.025,0.020,-0.015,-0.008,0.022,0.065,0.100,0.420,0.250,0.180,0.130
-0.004,0.020,0.024,-0.009,-0.014,0.022,0.065,0.080,0.400,0.238,0.172,0.126
-0.004,0.021,0.025,-0.009,-0.015,0.022,0.066,0.060,0.380,0.229,0.164,0.120
-0.010,0.017,0.026,-0.004,-0.018,0.021,0.063,0.042,0.360,0.222,0.156,0.110
-0.023,0.008,0.031,0.007,-0.027,0.020,0.060,0.026,0.341,0.212,0.148,0.104
-0.030,0.005,0.035,0.012,-0.033,0.020,0.060,0.010,0.325,0.200,0.140,0.100
-0.034,0.001,0.035,0.016,-0.034,0.017,0.060,-0.006,0.309,0.192,0.136,0.092
-0.041,-0.003,0.038,0.022,-0.039,0.017,0.060,-0.019,0.293,0.184,0.130,0.087
-0.048,-0.007,0.041,0.027,-0.044,0.017,0.060,-0.031,0.277,0.176,0.120,0.081
-0.051,-0.011,0.040,0.031,-0.045,0.014,0.059,-0.042,0.262,0.169,0.114,0.074
-0.055,-0.015,0.040,0.035,-0.047,0.012,0.055,-0.050,0.250,0.165,0.110,0.070
-0.059,-0.019,0.040,0.039,-0.050,0.010,0.055,-0.058,0.238,0.161,0.106,0.062
-0.060,-0.020,0.039,0.040,-0.050,0.010,0.055,-0.067,0.229,0.154,0.105,0.057
-0.061,-0.019,0.042,0.040,-0.052,0.011,0.055,-0.072,0.220,0.147,0.103,0.053
-0.066,-0.021,0.045,0.043,-0.056,0.012,0.055,-0.078,0.207,0.144,0.099,0.050
-0.070,-0.025,0.045,0.047,-0.057,0.010,0.055,-0.090,0.195,0.140,0.100,0.050
-0.070,-0.025,0.045,0.047,-0.057,0.010,0.055,-0.094,0.187,0.136,0.101,0.050
-0.070,-0.025,0.045,0.047,-0.057,0.010,0.058,-0.098,0.181,0.135,0.097,0.047
-0.070,-0.025,0.045,0.047,-0.057,0.010,0.061,-0.100,0.180,0.133,0.095,0.044
-0.069,-0.025,0.044,0.047,-0.056,0.010,0.060,-0.101,0.179,0.130,0.094,0.045
-0.065,-0.025,0.040,0.045,-0.052,0.007,0.060,-0.105,0.175,0.130,0.090,0.045
-0.065,-0.025,0.040,0.045,-0.052,0.007,0.060,-0.105,0.175,0.126,0.090,0.041
-0.065,-0.025,0.040,0.045,-0.052,0.007,0.060,-0.108,0.172,0.125,0.091,0.039
-0.065,-0.025,0.040,0.045,-0.052,0.007,0.060,-0.110,0.170,0.123,0.088,0.041
-0.065,-0.025,0.040,0.045,-0.052,0.007,0.060,-0.111,0.169,0.120,0.085,0.039
-0.065,-0.025,0.040,0.045,-0.052,0.007,0.060,-0.115,0.165,0.120,0.085,0.035
-0.069,-0.029,0.040,0.049,-0.055,0.005,0.060,-0.116,0.165,0.116,0.081,0.035
-0.070,-0.030,0.040,0.050,-0.055,0.005,0.060,-0.112,0.162,0.115,0.079,0.036
-0.072,-0.032,0.040,0.052,-0.056,0.004,0.060,-0.110,0.160,0.113,0.081,0.033
-0.075,-0.035,0.040,0.055,-0.057,0.002,0.060,-0.110,0.159,0.110,0.079,0.030
-0.075,-0.035,0.040,0.055,-0.057,0.002,0.060,-0.110,0.155,0.110,0.075,0.030
-0.079,-0.039,0.040,0.059,-0.059,0.000,0.060,-0.110,0.155,0.106,0.075,0.030
-0.080,-0.040,0.041,0.060,-0.061,0.000,0.060,-0.110,0.152,0.105,0.076,0.027
-0.080,-0.042,0.038,0.061,-0.059,-0.002,0.060,-0.110,0.150,0.103,0.073,0.024
-0.080,-0.045,0.035,0.062,-0.057,-0.005,0.060,-0.110,0.149,0.100,0.070,0.025
-0.080,-0.045,0.035,0.062,-0.057,-0.005,0.060,-0.110,0.145,0.100,0.070,0.025
-0.080,-0.045,0.035,0.062,-0.057,-0.005,0.060,-0.106,0.145,0.100,0.070,0.021
-0.080,-0.045,0.035,0.062,-0.057,-0.005,0.060,-0.105,0.145,0.101,0.067,0.019
-0.080,-0.045,0.035,0.062,-0.057,-0.005,0.060,-0.105,0.145,0.098,0.065,0.021
-0.081,-0.046,0.035,0.063,-0.057,-0.005,0.060,-0.105,0.145,0.095,0.065,0.019
-0.085,-0.050,0.035,0.067,-0.060,-0.007,0.060,-0.105,0.145,0.095,0.065,0.015
-0.085,-0.050,0.035,0.067,-0.060,-0.007,0.060,-0.105,0.145,0.095,0.065,0.015
-0.085,-0.050,0.035,0.067,-0.060,-0.007,0.060,-0.105,0.146,0.096,0.062,0.015
-0.085,-0.050,0.035,0.067,-0.060,-0.007,0.060,-0.105,0.143,0.093,0.059,0.015
-0.085,-0.050,0.035,0.067,-0.060,-0.007,0.060,-0.104,0.140,0.090,0.060,0.014
-0.085,-0.050,0.035,0.067,-0.060,-0.007,0.060,-0.100,0.140,0.090,0.060,0.010
-0.081,-0.046,0.035,0.063,-0.058,-0.005,0.060,-0.100,0.140,0.090,0.060,0.010
-0.076,-0.045,0.032,0.060,-0.054,-0.006,0.060,-0.100,0.140,0.090,0.057,0.010
-0.075,-0.045,0.029,0.060,-0.052,-0.007,0.060,-0.100,0.140,0.090,0.054,0.010
-0.075,-0.045,0.030,0.060,-0.052,-0.007,0.060,-0.100,0.140,0.089,0.055,0.009
-0.075,-0.045,0.030,0.060,-0.052,-0.007,0.060,-0.100,0.140,0.085,0.055,0.005
-0.075,-0.045,0.030,0.060,-0.052,-0.007,0.060,-0.100,0.140,0.085,0.051,0.005
-0.075,-0.045,0.030,0.060,-0.052,-0.007,0.063,-0.100,0.137,0.085,0.050,0.006
-0.075,-0.045,0.030,0.060,-0.052,-0.007,0.067,-0.100,0.134,0.085,0.050,0.003
-0.075,-0.045,0.030,0.060,-0.052,-0.007,0.070,-0.101,0.135,0.084,0.050,0.000
-0.075,-0.045,0.030,0.060,-0.052,-0.007,0.070,-0.105,0.135,0.080,0.050,0.000
-0.075,-0.045,0.030,0.060,-0.052,-0.007,0.070,-0.105,0.135,0.080,0.046,0.000
-0.075,-0.045,0.030,0.060,-0.052,-0.007,0.070,-0.105,0.135,0.080,0.045,0.001
-0.075,-0.045,0.030,0.060,-0.052,-0.007,0.070,-0.105,0.135,0.080,0.045,-0.002
-0.075,-0.045,0.030,0.060,-0.052,-0.007,0.070,-0.105,0.135,0.080,0.045,-0.005
-0.075,-0.045,0.030,0.060,-0.052,-0.007,0.070,-0.105,0.135,0.080,0.045,-0.005
-0.075,-0.045,0.030,0.060,-0.052,-0.007,0.070,-0.105,0.135,0.084,0.049,-0.005
-0.075,-0.045,0.030,0.060,-0.052,-0.007,0.070,-0.105,0.132,0.085,0.050,-0.006
-0.075,-0.045,0.030,0.060,-0.052,-0.007,0.070,-0.105,0.129,0.085,0.050,-0.003
-0.075,-0.045,0.030,0.060,-0.052,-0.007,0.070,-0.105,0.130,0.085,0.050,0.000
-0.075,-0.045,0.030,0.060,-0.052,-0.007,0.070,-0.105,0.130,0.085,0.050,0.000
-0.075,-0.045,0.030,0.060,-0.052,-0.007,0.070,-0.105,0.130,0.085,0.050,0.000
-0.075,-0.045,0.030,0.060,-0.052,-0.007,0.070,-0.105,0.130,0.085,0.050,0.000
-0.075,-0.045,0.030,0.060,-0.052,-0.007,0.070,-0.105,0.130,0.085,0.050,0.000
-0.076,-0.045,0.031,0.060,-0.053,-0.007,0.070,-0.105,0.130,0.085,0.050,0.000
-0.080,-0.045,0.035,0.062,-0.057,-0.005,0.070,-0.105,0.130,0.085,0.050,0.000
-0.080,-0.045,0.036,0.062,-0.058,-0.005,0.070,-0.105,0.126,0.085,0.050,0.000
-0.079,-0.046,0.033,0.062,-0.055,-0.006,0.070,-0.105,0.125,0.084,0.049,0.003
-0.084,-0.043,0.041,0.063,-0.062,-0.001,0.070,-0.105,0.125,0.087,0.052,0.006
-0.091,-0.040,0.051,0.065,-0.071,0.006,0.070,-0.105,0.125,0.090,0.055,0.005
-0.090,-0.040,0.050,0.065,-0.070,0.005,0.070,-0.105,0.125,0.090,0.055,0.005
-0.090,-0.040,0.050,0.065,-0.070,0.005,0.070,-0.105,0.125,0.090,0.055,0.005
-0.090,-0.040,0.050,0.065,-0.070,0.005,0.070,-0.105,0.125,0.090,0.055,0.005
-0.090,-0.040,0.050,0.065,-0.070,0.005,0.070,-0.105,0.125,0.090,0.055,0.005
-0.090,-0.040,0.050,0.065,-0.070,0.005,0.070,-0.105,0.124,0.090,0.056,0.005
-0.090,-0.040,0.050,0.065,-0.070,0.005,0.070,-0.105,0.120,0.090,0.060,0.005
-0.090,-0.040,0.050,0.065,-0.070,0.005,0.070,-0.105,0.120,0.090,0.060,0.009
-0.090,-0.040,0.050,0.065,-0.070,0.005,0.073,-0.108,0.120,0.090,0.060,0.010
-0.090,-0.040,0.050,0.065,-0.070,0.005,0.076,-0.111,0.120,0.092,0.060,0.010
-0.090,-0.040,0.050,0.065,-0.070,0.005,0.075,-0.110,0.120,0.096,0.060,0.010
-0.090,-0.040,0.050,0.065,-0.070,0.005,0.075,-0.110,0.120,0.095,0.060,0.010
-0.090,-0.040,0.050,0.065,-0.070,0.005,0.075,-0.110,0.120,0.091,0.056,0.010
-0.087,-0.037,0.050,0.062,-0.068,0.006,0.075,-0.110,0.120,0.089,0.055,0.010
-0.084,-0.034,0.050,0.059,-0.067,0.007,0.075,-0.110,0.120,0.091,0.055,0.010
-0.085,-0.035,0.050,0.060,-0.067,0.007,0.075,-0.111,0.119,0.089,0.055,0.010
-0.085,-0.035,0.050,0.060,-0.067,0.007,0.075,-0.115,0.115,0.085,0.055,0.010
-0.085,-0.035,0.050,0.060,-0.067,0.007,0.075,-0.115,0.115,0.085,0.055,0.006
-0.085,-0.035,0.050,0.060,-0.067,0.007,0.075,-0.115,0.116,0.085,0.055,0.005
-0.085,-0.035,0.050,0.060,-0.067,0.007,0.075,-0.115,0.113,0.085,0.055,0.005
-0.085,-0.035,0.050,0.060,-0.067,0.007,0.075,-0.115,0.110,0.084,0.055,0.005
-0.085,-0.035,0.050,0.060,-0.067,0.007,0.075,-0.115,0.110,0.080,0.055,0.005
-0.085,-0.035,0.050,0.060,-0.067,0.007,0.079,-0.115,0.110,0.080,0.055,0.001
-0.085,-0.035,0.050,0.060,-0.067,0.007,0.080,-0.118,0.111,0.080,0.055,0.000
-0.085,-0.035,0.050,0.060,-0.067,0.007,0.080,-0.121,0.108,0.080,0.055,0.000
-0.085,-0.035,0.050,0.060,-0.067,0.007,0.080,-0.120,0.105,0.079,0.054,0.000
-0.085,-0.035,0.050,0.060,-0.067,0.007,0.080,-0.120,0.105,0.075,0.050,0.000
-0.089,-0.039,0.050,0.064,-0.069,0.005,0.080,-0.124,0.105,0.075,0.050,-0.004
-0.094,-0.040,0.053,0.067,-0.073,0.006,0.080,-0.126,0.105,0.076,0.050,-0.005
-0.095,-0.040,0.056,0.067,-0.075,0.007,0.080,-0.124,0.103,0.073,0.050,-0.005
-0.095,-0.040,0.055,0.067,-0.075,0.007,0.080,-0.126,0.100,0.070,0.050,-0.005
-0.095,-0.040,0.055,0.067,-0.075,0.007,0.080,-0.130,0.100,0.070,0.050,-0.005
-0.095,-0.040,0.055,0.067,-0.075,0.007,0.080,-0.130,0.100,0.070,0.050,-0.005
-0.098,-0.043,0.055,0.070,-0.076,0.006,0.080,-0.130,0.097,0.071,0.050,-0.008
-0.101,-0.046,0.055,0.073,-0.077,0.005,0.080,-0.130,0.095,0.068,0.050,-0.011
-0.100,-0.045,0.055,0.072,-0.077,0.005,0.079,-0.131,0.095,0.065,0.050,-0.010
-0.100,-0.045,0.055,0.072,-0.077,0.005,0.075,-0.135,0.095,0.065,0.050,-0.010
-0.100,-0.045,0.055,0.072,-0.077,0.005,0.075,-0.135,0.095,0.065,0.050,-0.010
-0.099,-0.044,0.055,0.071,-0.077,0.005,0.075,-0.135,0.092,0.066,0.051,-0.013
-0.102,-0.047,0.055,0.074,-0.078,0.004,0.075,-0.135,0.089,0.063,0.048,-0.016
-0.105,-0.050,0.055,0.077,-0.080,0.002,0.075,-0.136,0.090,0.060,0.045,-0.015
-0.105,-0.050,0.055,0.077,-0.080,0.002,0.075,-0.140,0.090,0.060,0.045,-0.015
-0.105,-0.050,0.055,0.077,-0.080,0.002,0.075,-0.144,0.090,0.060,0.045,-0.015
-0.105,-0.050,0.055,0.077,-0.080,0.002,0.075,-0.148,0.087,0.060,0.045,-0.014
-0.105,-0.050,0.055,0.077,-0.080,0.002,0.075,-0.150,0.085,0.060,0.045,-0.017
-0.105,-0.050,0.055,0.077,-0.080,0.002,0.075,-0.150,0.084,0.060,0.045,-0.020
-0.105,-0.050,0.055,0.077,-0.080,0.002,0.075,-0.150,0.080,0.060,0.045,-0.020
-0.105,-0.050,0.055,0.077,-0.080,0.002,0.075,-0.150,0.080,0.060,0.045,-0.020
-0.105,-0.050,0.055,0.077,-0.080,0.002,0.075,-0.150,0.081,0.057,0.045,-0.020
-0.105,-0.050,0.055,0.077,-0.080,0.002,0.075,-0.150,0.078,0.054,0.045,-0.020
-0.105,-0.050,0.055,0.077,-0.080,0.002,0.075,-0.150,0.075,0.055,0.045,-0.020
-0.105,-0.050,0.055,0.077,-0.080,0.002,0.075,-0.150,0.075,0.055,0.045,-0.020
-0.105,-0.050,0.055,0.077,-0.080,0.002,0.075,-0.150,0.075,0.055,0.045,-0.020
-0.105,-0.050,0.055,0.077,-0.080,0.002,0.075,-0.150,0.072,0.055,0.042,-0.020
-0.105,-0.050,0.055,0.077,-0.080,0.002,0.075,-0.150,0.069,0.055,0.039,-0.020
-0.105,-0.050,0.055,0.077,-0.080,0.002,0.075,-0.149,0.070,0.055,0.040,-0.020
-0.105,-0.050,0.055,0.077,-0.080,0.002,0.075,-0.145,0.070,0.055,0.040,-0.020
-0.105,-0.050,0.055,0.077,-0.080,0.002,0.075,-0.145,0.066,0.051,0.040,-0.020
-0.105,-0.050,0.055,0.077,-0.080,0.002,0.075,-0.145,0.065,0.050,0.040,-0.020
-0.105,-0.050,0.055,0.077,-0.080,0.002,0.075,-0.145,0.063,0.050,0.040,-0.020
-0.105,-0.050,0.055,0.077,-0.080,0.002,0.075,-0.145,0.059,0.050,0.040,-0.020
-0.105,-0.050,0.055,0.077,-0.080,0.002,0.075,-0.145,0.060,0.050,0.040,-0.020
-0.105,-0.050,0.055,0.077,-0.080,0.002,0.075,-0.145,0.060,0.050,0.040,-0.020
-0.105,-0.050,0.055,0.077,-0.080,0.002,0.072,-0.148,0.057,0.050,0.040,-0.020
-0.105,-0.050,0.055,0.077,-0.080,0.002,0.069,-0.152,0.054,0.050,0.040,-0.020
-0.105,-0.050,0.055,0.077,-0.080,0.002,0.070,-0.156,0.055,0.050,0.040,-0.020
-0.105,-0.050,0.055,0.077,-0.080,0.002,0.070,-0.160,0.055,0.050,0.040,-0.020
-0.109,-0.054,0.055,0.081,-0.082,0.000,0.070,-0.165,0.051,0.046,0.036,-0.024
-0.110,-0.055,0.055,0.082,-0.082,0.000,0.070,-0.162,0.049,0.045,0.035,-0.025
-0.110,-0.055,0.055,0.082,-0.082,0.000,0.070,-0.159,0.051,0.045,0.035,-0.025
-0.110,-0.055,0.055,0.082,-0.082,0.000,0.070,-0.160,0.049,0.045,0.035,-0.025
-0.110,-0.055,0.055,0.082,-0.082,0.000,0.070,-0.160,0.045,0.045,0.035,-0.025
-0.111,-0.055,0.055,0.082,-0.083,0.000,0.070,-0.160,0.045,0.045,0.035,-0.025
-0.106,-0.054,0.052,0.080,-0.079,-0.001,0.070,-0.160,0.045,0.045,0.035,-0.025
-0.106,-0.057,0.049,0.082,-0.078,-0.003,0.070,-0.160,0.045,0.045,0.035,-0.025
-0.111,-0.060,0.050,0.085,-0.080,-0.005,0.070,-0.160,0.045,0.045,0.034,-0.026
-0.110,-0.060,0.050,0.085,-0.080,-0.005,0.070,-0.160,0.045,0.045,0.030,-0.030
-0.110,-0.060,0.050,0.085,-0.080,-0.005,0.070,-0.160,0.045,0.045,0.030,-0.030
-0.110,-0.060,0.050,0.085,-0.080,-0.005,0.070,-0.160,0.045,0.045,0.030,-0.030
-0.110,-0.060,0.050,0.085,-0.080,-0.005,0.070,-0.160,0.045,0.045,0.030,-0.030
-0.110,-0.060,0.050,0.085,-0.080,-0.005,0.070,-0.160,0.045,0.045,0.030,-0.030
-0.110,-0.060,0.050,0.085,-0.080,-0.005,0.070,-0.160,0.045,0.045,0.030,-0.030
-0.106,-0.060,0.046,0.082,-0.076,-0.007,0.070,-0.160,0.045,0.045,0.030,-0.030
-0.105,-0.060,0.045,0.082,-0.075,-0.007,0.070,-0.160,0.046,0.045,0.031,-0.030
-0.105,-0.060,0.045,0.082,-0.075,-0.007,0.070,-0.160,0.043,0.045,0.028,-0.030
-0.105,-0.060,0.045,0.082,-0.075,-0.007,0.070,-0.160,0.040,0.045,0.025,-0.030
-0.105,-0.060,0.045,0.082,-0.075,-0.007,0.070,-0.160,0.040,0.045,0.025,-0.030
-0.105,-0.060,0.045,0.082,-0.075,-0.007,0.070,-0.160,0.040,0.045,0.025,-0.030
-0.105,-0.060,0.045,0.082,-0.075,-0.007,0.070,-0.160,0.040,0.045,0.025,-0.030
-0.105,-0.060,0.045,0.082,-0.075,-0.007,0.070,-0.160,0.040,0.045,0.025,-0.030
-0.104,-0.060,0.044,0.082,-0.074,-0.007,0.070,-0.160,0.040,0.045,0.025,-0.030
-0.100,-0.060,0.040,0.080,-0.070,-0.010,0.070,-0.160,0.040,0.045,0.025,-0.030
-0.100,-0.060,0.040,0.080,-0.070,-0.010,0.070,-0.160,0.040,0.045,0.025,-0.030
-0.100,-0.060,0.040,0.080,-0.070,-0.010,0.070,-0.160,0.040,0.046,0.026,-0.030
-0.100,-0.060,0.040,0.080,-0.070,-0.010,0.070,-0.160,0.040,0.043,0.023,-0.030
-0.100,-0.060,0.040,0.080,-0.070,-0.010,0.070,-0.160,0.040,0.040,0.020,-0.030
-0.100,-0.060,0.040,0.080,-0.070,-0.010,0.070,-0.160,0.040,0.040,0.020,-0.030
-0.100,-0.060,0.040,0.080,-0.070,-0.010,0.070,-0.160,0.040,0.040,0.020,-0.030
-0.100,-0.060,0.040,0.080,-0.070,-0.010,0.070,-0.160,0.043,0.040,0.020,-0.030
-0.100,-0.060,0.040,0.080,-0.070,-0.010,0.070,-0.160,0.046,0.040,0.020,-0.030
-0.100,-0.060,0.040,0.080,-0.070,-0.010,0.070,-0.160,0.045,0.040,0.020,-0.030
-0.100,-0.060,0.040,0.080,-0.070,-0.010,0.070,-0.160,0.045,0.040,0.020,-0.030
-0.100,-0.060,0.040,0.080,-0.070,-0.010,0.070,-0.160,0.045,0.040,0.020,-0.030
-0.100,-0.060,0.040,0.080,-0.070,-0.010,0.070,-0.160,0.045,0.040,0.020,-0.030
-0.100,-0.060,0.040,0.080,-0.070,-0.010,0.070,-0.160,0.045,0.040,0.020,-0.030
-0.100,-0.060,0.040,0.080,-0.070,-0.010,0.070,-0.160,0.045,0.040,0.020,-0.030
-0.100,-0.060,0.040,0.080,-0.070,-0.010,0.070,-0.160,0.045,0.040,0.020,-0.030
-0.100,-0.060,0.040,0.080,-0.070,-0.010,0.070,-0.160,0.045,0.040,0.020,-0.030
-0.100,-0.060,0.040,0.080,-0.070,-0.010,0.070,-0.160,0.045,0.040,0.017,-0.030
-0.100,-0.060,0.040,0.080,-0.070,-0.010,0.070,-0.160,0.045,0.040,0.014,-0.030
-0.100,-0.060,0.040,0.080,-0.070,-0.010,0.070,-0.160,0.045,0.040,0.015,-0.030
-0.100,-0.060,0.040,0.080,-0.070,-0.010,0.070,-0.160,0.045,0.040,0.015,-0.030
-0.100,-0.060,0.040,0.080,-0.070,-0.010,0.070,-0.160,0.045,0.040,0.015,-0.034
-0.100,-0.060,0.040,0.080,-0.070,-0.010,0.070,-0.160,0.045,0.040,0.015,-0.035
-0.099,-0.060,0.039,0.079,-0.069,-0.011,0.070,-0.160,0.045,0.040,0.015,-0.035
-0.103,-0.060,0.043,0.081,-0.073,-0.009,0.070,-0.160,0.045,0.040,0.015,-0.035
-0.115,-0.060,0.055,0.087,-0.085,-0.002,0.070,-0.160,0.045,0.040,0.015,-0.035
-0.111,-0.060,0.051,0.086,-0.081,-0.004,0.070,-0.160,0.045,0.040,0.015,-0.035
-0.109,-0.060,0.049,0.085,-0.079,-0.005,0.067,-0.160,0.045,0.040,0.015,-0.035
-0.110,-0.060,0.050,0.085,-0.080,-0.005,0.064,-0.160,0.045,0.040,0.015,-0.035
-0.110,-0.060,0.050,0.085,-0.080,-0.005,0.065,-0.160,0.045,0.040,0.015,-0.035
-0.110,-0.060,0.050,0.085,-0.080,-0.005,0.065,-0.160,0.045,0.040,0.015,-0.035
-0.110,-0.060,0.050,0.085,-0.080,-0.005,0.065,-0.160,0.045,0.036,0.019,-0.035
-0.110,-0.060,0.050,0.085,-0.080,-0.005,0.065,-0.157,0.045,0.035,0.024,-0.035
-0.110,-0.060,0.050,0.085,-0.080,-0.005,0.065,-0.154,0.045,0.035,0.025,-0.035
-0.109,-0.060,0.049,0.085,-0.079,-0.005,0.065,-0.155,0.044,0.035,0.025,-0.035
-0.105,-0.060,0.045,0.082,-0.075,-0.007,0.065,-0.155,0.040,0.035,0.025,-0.035
-0.105,-0.060,0.045,0.082,-0.075,-0.007,0.065,-0.155,0.040,0.035,0.025,-0.035
-0.105,-0.060,0.045,0.082,-0.075,-0.007,0.065,-0.155,0.040,0.035,0.025,-0.035
-0.105,-0.060,0.045,0.082,-0.075,-0.007,0.065,-0.155,0.040,0.035,0.025,-0.035
-0.105,-0.060,0.045,0.082,-0.075,-0.007,0.065,-0.155,0.040,0.035,0.025,-0.035
-0.105,-0.060,0.045,0.082,-0.075,-0.007,0.065,-0.155,0.040,0.035,0.025,-0.035
-0.105,-0.060,0.045,0.082,-0.075,-0.007,0.065,-0.151,0.036,0.035,0.025,-0.035
-0.106,-0.060,0.046,0.082,-0.076,-0.007,0.065,-0.150,0.035,0.035,0.025,-0.035
-0.103,-0.060,0.043,0.081,-0.073,-0.008,0.065,-0.150,0.035,0.035,0.025,-0.035
-0.100,-0.060,0.040,0.080,-0.070,-0.010,0.065,-0.150,0.035,0.035,0.025,-0.035
-0.100,-0.060,0.040,0.080,-0.070,-0.010,0.065,-0.150,0.035,0.035,0.025,-0.035
-0.100,-0.060,0.040,0.080,-0.070,-0.010,0.065,-0.150,0.035,0.035,0.025,-0.035
-0.100,-0.060,0.040,0.080,-0.070,-0.010,0.065,-0.150,0.036,0.035,0.025,-0.036
-0.100,-0.060,0.040,0.080,-0.070,-0.010,0.065,-0.150,0.033,0.035,0.025,-0.033
-0.100,-0.060,0.040,0.080,-0.070,-0.010,0.065,-0.149,0.030,0.035,0.025,-0.030
-0.100,-0.060,0.040,0.080,-0.070,-0.010,0.065,-0.145,0.030,0.035,0.025,-0.030
-0.100,-0.060,0.040,0.080,-0.070,-0.010,0.065,-0.145,0.030,0.035,0.025,-0.030
-0.100,-0.060,0.040,0.080,-0.070,-0.010,0.065,-0.145,0.030,0.035,0.025,-0.030
-0.100,-0.060,0.040,0.080,-0.070,-0.010,0.065,-0.145,0.030,0.035,0.025,-0.030
-0.100,-0.060,0.040,0.080,-0.070,-0.010,0.065,-0.145,0.029,0.035,0.025,-0.030
-0.100,-0.060,0.040,0.080,-0.070,-0.010,0.065,-0.145,0.025,0.035,0.025,-0.030
-0.100,-0.060,0.040,0.080,-0.070,-0.010,0.065,-0.145,0.025,0.035,0.025,-0.030
-0.100,-0.060,0.040,0.080,-0.070,-0.010,0.065,-0.145,0.025,0.034,0.025,-0.030
-0.100,-0.060,0.040,0.080,-0.070,-0.010,0.065,-0.145,0.025,0.037,0.025,-0.030
-0.100,-0.060,0.040,0.080,-0.070,-0.010,0.065,-0.144,0.025,0.040,0.025,-0.030
-0.100,-0.060,0.040,0.080,-0.070,-0.010,0.065,-0.140,0.025,0.040,0.025,-0.030
-0.100,-0.060,0.040,0.080,-0.070,-0.010,0.065,-0.140,0.025,0.040,0.025,-0.030
-0.100,-0.060,0.040,0.080,-0.070,-0.010,0.065,-0.141,0.028,0.040,0.025,-0.030
-0.100,-0.060,0.040,0.080,-0.070,-0.010,0.065,-0.138,0.031,0.040,0.025,-0.030
-0.100,-0.060,0.040,0.080,-0.070,-0.010,0.065,-0.135,0.030,0.040,0.025,-0.030
-0.100,-0.060,0.040,0.080,-0.070,-0.010,0.065,-0.135,0.030,0.040,0.025,-0.030
-0.096,-0.056,0.040,0.076,-0.067,-0.008,0.065,-0.135,0.030,0.040,0.025,-0.030
-0.094,-0.054,0.040,0.074,-0.067,-0.007,0.065,-0.136,0.030,0.040,0.025,-0.030
-0.095,-0.056,0.040,0.075,-0.067,-0.007,0.065,-0.133,0.030,0.040,0.025,-0.030
-0.094,-0.054,0.040,0.074,-0.067,-0.007,0.065,-0.130,0.030,0.040,0.025,-0.030
-0.090,-0.050,0.040,0.070,-0.065,-0.005,0.065,-0.130,0.030,0.040,0.025,-0.030
-0.085,-0.050,0.036,0.067,-0.061,-0.007,0.065,-0.130,0.034,0.040,0.025,-0.030
-0.085,-0.051,0.035,0.067,-0.060,-0.007,0.065,-0.130,0.035,0.040,0.025,-0.030
-0.083,-0.048,0.035,0.065,-0.059,-0.006,0.065,-0.128,0.035,0.040,0.025,-0.030
-0.088,-0.045,0.044,0.067,-0.066,0.000,0.065,-0.125,0.035,0.040,0.025,-0.030
-0.105,-0.045,0.060,0.075,-0.082,0.007,0.065,-0.125,0.035,0.040,0.025,-0.030
-0.102,-0.045,0.057,0.073,-0.079,0.006,0.065,-0.125,0.035,0.040,0.025,-0.026
-0.099,-0.046,0.054,0.072,-0.076,0.004,0.068,-0.122,0.035,0.040,0.025,-0.025
-0.099,-0.042,0.058,0.070,-0.078,0.008,0.070,-0.120,0.035,0.040,0.027,-0.023
-0.102,-0.033,0.069,0.067,-0.085,0.018,0.071,-0.120,0.034,0.039,0.031,-0.020
-0.110,-0.030,0.080,0.070,-0.095,0.025,0.075,-0.120,0.035,0.040,0.035,-0.020
-0.102,-0.026,0.076,0.064,-0.089,0.025,0.079,-0.120,0.047,0.052,0.039,-0.016
-0.097,-0.022,0.075,0.059,-0.086,0.026,0.084,-0.117,0.054,0.059,0.040,-0.014
-0.091,-0.018,0.073,0.054,-0.082,0.027,0.085,-0.115,0.055,0.060,0.041,-0.016
-0.084,-0.014,0.069,0.049,-0.076,0.027,0.086,-0.115,0.055,0.060,0.046,-0.014
-0.080,-0.010,0.070,0.045,-0.075,0.030,0.090,-0.115,0.055,0.060,0.050,-0.010
-0.076,-0.006,0.071,0.041,-0.073,0.032,0.094,-0.116,0.055,0.060,0.054,-0.010
-0.072,-0.005,0.067,0.038,-0.069,0.031,0.098,-0.109,0.058,0.060,0.055,-0.007
-0.068,-0.003,0.065,0.035,-0.066,0.031,0.102,-0.103,0.062,0.059,0.057,-0.005
-0.064,0.001,0.064,0.031,-0.064,0.032,0.106,-0.098,0.066,0.061,0.060,-0.004
-0.060,0.000,0.060,0.030,-0.060,0.030,0.110,-0.090,0.070,0.070,0.060,0.000
-0.060,-0.001,0.060,0.030,-0.060,0.030,0.110,-0.086,0.074,0.074,0.064,0.000
-0.057,0.003,0.061,0.027,-0.059,0.032,0.113,-0.079,0.078,0.078,0.065,-0.001
-0.053,0.005,0.058,0.024,-0.056,0.031,0.116,-0.073,0.082,0.083,0.067,0.002
-0.049,0.006,0.055,0.021,-0.052,0.030,0.114,-0.069,0.086,0.085,0.071,0.005
-0.045,0.010,0.055,0.017,-0.050,0.032,0.105,-0.065,0.090,0.085,0.070,0.005
-0.041,0.010,0.051,0.015,-0.046,0.030,0.097,-0.065,0.095,0.094,0.066,0.009
-0.039,0.010,0.049,0.014,-0.044,0.030,0.089,-0.065,0.087,0.090,0.065,0.011
-0.042,0.009,0.051,0.017,-0.047,0.029,0.081,-0.065,0.075,0.082,0.065,0.008
-0.045,0.004,0.049,0.021,-0.048,0.026,0.073,-0.064,0.068,0.079,0.065,0.005
-0.045,0.000,0.045,0.022,-0.045,0.022,0.065,-0.065,0.060,0.075,0.065,0.005
-0.044,0.000,0.045,0.021,-0.044,0.022,0.057,-0.084,0.052,0.067,0.065,0.005
-0.049,-0.003,0.046,0.026,-0.047,0.021,0.051,-0.110,0.044,0.062,0.065,0.006
-0.047,-0.005,0.041,0.025,-0.043,0.018,0.050,-0.142,0.035,0.058,0.065,0.003
-0.039,-0.005,0.033,0.022,-0.036,0.014,0.050,-0.161,0.030,0.054,0.064,0.000
-0.040,-0.010,0.030,0.025,-0.035,0.010,0.050,-0.155,0.035,0.050,0.060,0.000
-0.041,-0.015,0.026,0.027,-0.033,0.006,0.050,-0.155,0.035,0.050,0.060,0.000
-0.037,-0.015,0.022,0.026,-0.029,0.003,0.050,-0.152,0.035,0.050,0.060,0.001
-0.035,-0.017,0.018,0.026,-0.026,0.000,0.050,-0.150,0.035,0.050,0.060,-0.002
-0.034,-0.020,0.014,0.027,-0.024,-0.003,0.050,-0.149,0.035,0.050,0.060,-0.005
-0.030,-0.020,0.010,0.025,-0.020,-0.005,0.050,-0.145,0.035,0.050,0.060,-0.005
-0.030,-0.024,0.006,0.027,-0.018,-0.009,0.050,-0.145,0.035,0.046,0.060,-0.005
-0.027,-0.025,0.001,0.026,-0.013,-0.011,0.050,-0.142,0.035,0.045,0.061,-0.005
-0.026,-0.026,0.000,0.026,-0.013,-0.013,0.050,-0.140,0.035,0.045,0.058,-0.005
-0.031,-0.031,-0.001,0.031,-0.015,-0.016,0.050,-0.139,0.035,0.045,0.055,-0.006
-0.030,-0.035,-0.005,0.033,-0.012,-0.020,0.050,-0.135,0.035,0.045,0.055,-0.010
-0.026,-0.035,-0.009,0.031,-0.008,-0.022,0.050,-0.135,0.034,0.044,0.055,-0.010
-0.024,-0.035,-0.011,0.029,-0.006,-0.022,0.050,-0.135,0.045,0.055,0.055,-0.010
-0.027,-0.035,-0.008,0.031,-0.009,-0.021,0.050,-0.135,0.050,0.060,0.055,-0.010
-0.031,-0.035,-0.004,0.033,-0.013,-0.019,0.050,-0.135,0.044,0.054,0.055,-0.011
-0.035,-0.035,0.000,0.035,-0.017,-0.017,0.050,-0.135,0.040,0.050,0.055,-0.015
-0.039,-0.035,0.004,0.037,-0.021,-0.016,0.050,-0.135,0.036,0.046,0.055,-0.015
-0.041,-0.033,0.008,0.037,-0.024,-0.012,0.050,-0.135,0.031,0.041,0.056,-0.015
-0.055,-0.042,0.012,0.048,-0.033,-0.015,0.050,-0.135,0.030,0.040,0.053,-0.015
-0.073,-0.058,0.015,0.065,-0.044,-0.021,0.050,-0.136,0.029,0.039,0.050,-0.015
-0.075,-0.060,0.015,0.067,-0.045,-0.022,0.050,-0.140,0.025,0.035,0.050,-0.015
-0.079,-0.060,0.019,0.069,-0.049,-0.020,0.050,-0.145,0.021,0.031,0.046,-0.019
-0.084,-0.063,0.020,0.074,-0.052,-0.021,0.050,-0.142,0.017,0.027,0.044,-0.023
-0.085,-0.065,0.020,0.075,-0.052,-0.022,0.050,-0.139,0.013,0.023,0.046,-0.027
-0.086,-0.066,0.020,0.076,-0.052,-0.022,0.051,-0.140,0.010,0.020,0.044,-0.030
-0.090,-0.070,0.020,0.080,-0.055,-0.025,0.055,-0.140,0.010,0.020,0.040,-0.030
-0.090,-0.070,0.020,0.080,-0.055,-0.025,0.055,-0.140,0.006,0.016,0.040,-0.030
-0.090,-0.070,0.020,0.080,-0.055,-0.025,0.055,-0.140,0.005,0.015,0.041,-0.030
-0.090,-0.070,0.020,0.080,-0.055,-0.025,0.055,-0.140,0.005,0.015,0.038,-0.030
-0.090,-0.070,0.020,0.080,-0.055,-0.025,0.055,-0.140,0.005,0.015,0.035,-0.030
-0.090,-0.070,0.020,0.080,-0.055,-0.025,0.055,-0.140,0.005,0.015,0.035,-0.030
-0.089,-0.070,0.020,0.079,-0.054,-0.025,0.055,-0.140,0.005,0.015,0.036,-0.030
-0.096,-0.073,0.023,0.084,-0.059,-0.025,0.055,-0.140,0.005,0.015,0.032,-0.030
-0.101,-0.076,0.026,0.088,-0.063,-0.025,0.055,-0.140,0.005,0.015,0.030,-0.030
-0.100,-0.075,0.025,0.087,-0.062,-0.025,0.055,-0.140,0.004,0.015,0.029,-0.030
-0.100,-0.075,0.025,0.087,-0.062,-0.025,0.055,-0.140,0.000,0.015,0.025,-0.030
-0.100,-0.075,0.025,0.087,-0.062,-0.025,0.059,-0.136,0.000,0.015,0.025,-0.029
-0.097,-0.072,0.025,0.084,-0.061,-0.023,0.060,-0.135,0.000,0.015,0.026,-0.037
-0.094,-0.069,0.025,0.081,-0.060,-0.022,0.060,-0.135,0.000,0.015,0.023,-0.039
-0.095,-0.070,0.025,0.082,-0.060,-0.022,0.060,-0.135,0.000,0.015,0.020,-0.034
-0.095,-0.070,0.025,0.082,-0.060,-0.022,0.060,-0.135,0.000,0.015,0.020,-0.035
-0.095,-0.070,0.025,0.082,-0.060,-0.022,0.060,-0.135,0.000,0.015,0.020,-0.035
-0.094,-0.070,0.024,0.082,-0.059,-0.022,0.060,-0.135,0.001,0.015,0.017,-0.035
-0.097,-0.070,0.027,0.083,-0.062,-0.021,0.060,-0.135,-0.002,0.015,0.015,-0.035
-0.100,-0.070,0.030,0.085,-0.065,-0.020,0.060,-0.135,-0.005,0.015,0.015,-0.035
-0.100,-0.070,0.030,0.085,-0.065,-0.020,0.060,-0.135,-0.005,0.015,0.015,-0.035
-0.100,-0.070,0.030,0.085,-0.065,-0.020,0.060,-0.135,-0.005,0.015,0.019,-0.035
-0.100,-0.070,0.030,0.085,-0.065,-0.020,0.057,-0.135,-0.005,0.015,0.020,-0.035
-0.100,-0.070,0.030,0.085,-0.065,-0.020,0.054,-0.135,-0.005,0.015,0.020,-0.035
-0.100,-0.070,0.030,0.085,-0.065,-0.020,0.055,-0.136,-0.005,0.015,0.020,-0.035
-0.100,-0.070,0.030,0.085,-0.065,-0.020,0.055,-0.140,-0.005,0.015,0.020,-0.035
-0.096,-0.066,0.030,0.081,-0.062,-0.017,0.055,-0.140,-0.005,0.015,0.020,-0.035
-0.095,-0.065,0.030,0.080,-0.062,-0.017,0.052,-0.140,-0.005,0.014,0.020,-0.035
-0.095,-0.065,0.030,0.080,-0.062,-0.017,0.049,-0.140,-0.005,0.017,0.020,-0.035
-0.095,-0.065,0.030,0.080,-0.062,-0.017,0.050,-0.140,-0.005,0.020,0.020,-0.035
-0.095,-0.065,0.030,0.080,-0.062,-0.017,0.050,-0.140,-0.005,0.020,0.020,-0.035
-0.095,-0.065,0.030,0.080,-0.062,-0.017,0.050,-0.140,-0.005,0.020,0.020,-0.035
-0.098,-0.065,0.033,0.081,-0.065,-0.016,0.047,-0.140,-0.005,0.020,0.020,-0.035
-0.101,-0.065,0.036,0.082,-0.068,-0.015,0.044,-0.140,-0.005,0.020,0.020,-0.035
-0.100,-0.065,0.035,0.082,-0.067,-0.015,0.045,-0.140,-0.005,0.021,0.020,-0.035
-0.100,-0.065,0.035,0.082,-0.067,-0.015,0.045,-0.140,-0.005,0.025,0.020,-0.035
-0.100,-0.065,0.035,0.082,-0.067,-0.015,0.045,-0.144,-0.005,0.025,0.020,-0.035
-0.100,-0.065,0.035,0.082,-0.067,-0.015,0.046,-0.145,-0.005,0.025,0.020,-0.035
-0.100,-0.065,0.035,0.082,-0.067,-0.015,0.043,-0.145,-0.005,0.025,0.020,-0.035
-0.099,-0.064,0.035,0.081,-0.067,-0.015,0.040,-0.145,-0.005,0.025,0.020,-0.035
-0.095,-0.060,0.035,0.077,-0.065,-0.012,0.040,-0.145,-0.005,0.025,0.020,-0.035
-0.095,-0.060,0.035,0.077,-0.065,-0.012,0.040,-0.145,-0.005,0.029,0.020,-0.031
-0.095,-0.060,0.035,0.077,-0.065,-0.012,0.041,-0.145,-0.005,0.031,0.020,-0.030
-0.095,-0.060,0.035,0.077,-0.065,-0.012,0.038,-0.145,-0.005,0.029,0.020,-0.028
-0.094,-0.060,0.034,0.077,-0.064,-0.012,0.035,-0.145,-0.005,0.031,0.020,-0.025
-0.095,-0.060,0.035,0.077,-0.065,-0.012,0.035,-0.145,-0.005,0.035,0.020,-0.025
-0.108,-0.061,0.047,0.085,-0.077,-0.007,0.035,-0.144,-0.012,0.035,0.028,-0.020
-0.108,-0.049,0.059,0.078,-0.083,0.004,0.034,-0.156,-0.023,0.034,0.037,-0.022
-0.105,-0.032,0.073,0.068,-0.089,0.020,0.038,-0.173,-0.022,0.037,0.043,-0.011
-0.103,-0.015,0.088,0.058,-0.095,0.036,0.030,-0.189,-0.014,0.049,0.055,0.009
-0.085,0.010,0.095,0.037,-0.090,0.052,-0.005,-0.200,-0.005,0.075,0.085,0.025
-0.069,0.033,0.101,0.018,-0.085,0.066,-0.039,-0.185,0.042,0.112,0.131,0.063
-0.053,0.069,0.122,-0.009,-0.087,0.096,-0.059,-0.170,0.089,0.173,0.188,0.112
-0.022,0.107,0.129,-0.042,-0.075,0.118,-0.085,-0.158,0.133,0.231,0.239,0.157
0.011,0.129,0.118,-0.070,-0.054,0.123,-0.109,-0.158,0.174,0.277,0.289,0.203
0.030,0.145,0.115,-0.088,-0.043,0.130,-0.135,-0.240,0.190,0.330,0.355,0.260
0.063,0.174,0.111,-0.119,-0.024,0.143,-0.212,-0.468,0.175,0.377,0.419,0.323
0.083,0.223,0.140,-0.154,-0.029,0.182,-0.264,-0.687,0.157,0.433,0.487,0.392
0.133,0.258,0.125,-0.196,0.003,0.191,-0.334,-0.855,0.143,0.500,0.567,0.471
0.223,0.284,0.061,-0.254,0.081,0.173,-0.449,-0.982,0.124,0.592,0.668,0.566
0.325,0.335,0.010,-0.330,0.157,0.172,-0.565,-1.070,0.115,0.715,0.800,0.685
0.458,0.382,-0.075,-0.420,0.266,0.153,-0.703,-1.160,0.174,0.845,0.950,0.823
0.610,0.440,-0.170,-0.524,0.389,0.135,-0.852,-1.235,0.252,0.994,1.113,0.973
0.740,0.515,-0.225,-0.627,0.482,0.145,-1.010,-1.356,0.265,1.125,1.276,1.128
0.856,0.611,-0.245,-0.733,0.550,0.182,-1.159,-1.482,0.263,1.251,1.434,1.284
0.980,0.700,-0.280,-0.840,0.630,0.210,-1.260,-1.500,0.340,1.360,1.560,1.410
1.063,0.711,-0.352,-0.887,0.707,0.179,-1.297,-1.442,0.424,1.309,1.578,1.431
1.095,0.605,-0.489,-0.850,0.792,0.058,-1.263,-1.386,0.467,1.256,1.459,1.322
1.089,0.459,-0.629,-0.774,0.859,-0.085,-1.212,-1.344,0.462,1.151,1.280,1.156
1.080,0.345,-0.735,-0.713,0.908,-0.195,-1.168,-1.288,0.441,0.998,1.126,1.014
1.085,0.245,-0.840,-0.665,0.962,-0.297,-1.115,-1.185,0.420,0.885,0.985,0.890
1.059,0.099,-0.960,-0.579,1.010,-0.431,-1.066,-1.030,0.365,0.707,0.783,0.708
1.016,-0.049,-1.065,-0.483,1.041,-0.557,-0.983,-0.951,0.309,0.502,0.584,0.529
0.912,-0.176,-1.088,-0.368,1.000,-0.632,-0.875,-0.884,0.247,0.329,0.410,0.375
0.774,-0.286,-1.060,-0.244,0.917,-0.673,-0.752,-0.798,0.161,0.165,0.234,0.219
0.665,-0.380,-1.045,-0.142,0.855,-0.712,-0.615,-0.750,0.035,-0.030,0.050,0.055
0.532,-0.452,-0.984,-0.040,0.759,-0.718,-0.492,-0.699,-0.143,-0.205,-0.104,-0.075
0.417,-0.488,-0.905,0.035,0.662,-0.696,-0.392,-0.640,-0.276,-0.311,-0.202,-0.154
0.341,-0.466,-0.807,0.062,0.575,-0.636,-0.313,-0.566,-0.292,-0.311,-0.213,-0.168
0.277,-0.413,-0.690,0.068,0.484,-0.551,-0.250,-0.494,-0.245,-0.251,-0.170,-0.145
0.200,-0.370,-0.570,0.085,0.385,-0.470,-0.190,-0.440,-0.215,-0.205,-0.140,-0.130
0.130,-0.319,-0.449,0.094,0.290,-0.383,-0.132,-0.387,-0.179,-0.161,-0.108,-0.114
0.075,-0.267,-0.341,0.096,0.209,-0.303,-0.094,-0.346,-0.146,-0.118,-0.077,-0.101
0.043,-0.228,-0.270,0.093,0.157,-0.249,-0.066,-0.313,-0.113,-0.085,-0.055,-0.089
0.025,-0.197,-0.223,0.086,0.125,-0.210,-0.039,-0.274,-0.075,-0.058,-0.042,-0.078
0.005,-0.170,-0.175,0.083,0.090,-0.172,-0.015,-0.225,-0.040,-0.035,-0.030,-0.070
-0.015,-0.157,-0.143,0.086,0.064,-0.150,0.010,-0.176,-0.012,-0.022,-0.014,-0.063
-0.037,-0.146,-0.109,0.092,0.036,-0.128,0.025,-0.134,0.017,-0.014,0.000,-0.051
-0.048,-0.134,-0.086,0.091,0.019,-0.110,0.037,-0.095,0.039,-0.006,0.008,-0.041
-0.043,-0.122,-0.078,0.083,0.018,-0.100,0.054,-0.064,0.054,0.002,0.011,-0.032
-0.040,-0.110,-0.070,0.075,0.015,-0.090,0.065,-0.050,0.070,0.010,0.015,-0.025
-0.044,-0.102,-0.058,0.074,0.007,-0.079,0.068,-0.038,0.075,0.018,0.019,-0.033
-0.044,-0.094,-0.049,0.070,0.002,-0.071,0.079,-0.023,0.075,0.026,0.020,-0.033
-0.049,-0.088,-0.039,0.069,-0.005,-0.063,0.090,-0.008,0.075,0.033,0.022,-0.029
-0.056,-0.083,-0.028,0.070,-0.014,-0.055,0.097,0.002,0.076,0.035,0.025,-0.030
-0.055,-0.075,-0.020,0.065,-0.017,-0.047,0.105,0.010,0.080,0.035,0.025,-0.030
-0.055,-0.067,-0.012,0.061,-0.021,-0.039,0.110,0.014,0.080,0.035,0.025,-0.030
-0.055,-0.062,-0.007,0.059,-0.024,-0.034,0.110,0.017,0.079,0.035,0.025,-0.030
-0.055,-0.058,-0.003,0.057,-0.026,-0.030,0.110,0.024,0.082,0.035,0.025,-0.030
-0.056,-0.055,0.001,0.055,-0.028,-0.026,0.110,0.031,0.085,0.035,0.025,-0.030
-0.060,-0.055,0.005,0.057,-0.032,-0.025,0.110,0.035,0.085,0.035,0.025,-0.030
-0.064,-0.055,0.009,0.059,-0.036,-0.023,0.110,0.039,0.089,0.035,0.025,-0.026
-0.068,-0.055,0.013,0.061,-0.040,-0.020,0.113,0.046,0.090,0.035,0.025,-0.025
-0.071,-0.055,0.016,0.063,-0.043,-0.020,0.116,0.053,0.090,0.035,0.025,-0.025
-0.069,-0.054,0.014,0.061,-0.041,-0.020,0.115,0.055,0.090,0.035,0.025,-0.025
-0.065,-0.050,0.015,0.057,-0.040,-0.017,0.115,0.055,0.090,0.035,0.025,-0.025
-0.073,-0.050,0.023,0.061,-0.048,-0.013,0.115,0.059,0.090,0.039,0.025,-0.025
-0.076,-0.050,0.026,0.063,-0.051,-0.012,0.114,0.063,0.090,0.040,0.025,-0.025
-0.075,-0.050,0.025,0.062,-0.050,-0.012,0.117,0.067,0.090,0.042,0.025,-0.025
-0.075,-0.050,0.025,0.062,-0.050,-0.012,0.120,0.070,0.090,0.045,0.025,-0.024
-0.075,-0.050,0.025,0.062,-0.050,-0.012,0.120,0.070,0.090,0.045,0.025,-0.020
-0.075,-0.050,0.025,0.062,-0.050,-0.012,0.120,0.074,0.098,0.049,0.029,-0.020
-0.072,-0.047,0.025,0.059,-0.048,-0.011,0.120,0.078,0.104,0.050,0.029,-0.020
-0.069,-0.044,0.025,0.056,-0.047,-0.010,0.120,0.082,0.107,0.050,0.033,-0.020
-0.070,-0.045,0.025,0.057,-0.047,-0.010,0.120,0.086,0.111,0.050,0.042,-0.020
-0.070,-0.045,0.025,0.057,-0.047,-0.010,0.120,0.090,0.115,0.050,0.045,-0.020
-0.070,-0.045,0.025,0.057,-0.047,-0.010,0.120,0.090,0.115,0.050,0.045,-0.020
-0.071,-0.046,0.025,0.058,-0.047,-0.010,0.120,0.090,0.114,0.050,0.045,-0.020
-0.068,-0.043,0.025,0.055,-0.046,-0.009,0.120,0.090,0.117,0.050,0.045,-0.020
-0.065,-0.040,0.026,0.052,-0.045,-0.007,0.120,0.090,0.120,0.050,0.045,-0.019
-0.070,-0.040,0.030,0.055,-0.050,-0.005,0.120,0.095,0.120,0.050,0.045,-0.015
-0.074,-0.040,0.034,0.057,-0.054,-0.002,0.120,0.103,0.120,0.050,0.049,-0.015
-0.075,-0.040,0.035,0.057,-0.055,-0.002,0.120,0.108,0.123,0.050,0.050,-0.015
-0.075,-0.040,0.035,0.057,-0.055,-0.002,0.120,0.112,0.127,0.050,0.050,-0.015
-0.075,-0.040,0.035,0.057,-0.055,-0.002,0.120,0.116,0.130,0.050,0.050,-0.015
-0.075,-0.040,0.035,0.057,-0.055,-0.002,0.120,0.120,0.130,0.050,0.050,-0.015
-0.071,-0.036,0.035,0.053,-0.052,0.000,0.120,0.124,0.130,0.050,0.050,-0.015
-0.070,-0.035,0.035,0.052,-0.052,0.000,0.120,0.129,0.130,0.049,0.050,-0.016
-0.070,-0.035,0.035,0.052,-0.052,0.000,0.122,0.130,0.130,0.052,0.050,-0.013
-0.070,-0.035,0.035,0.052,-0.052,0.000,0.126,0.131,0.129,0.055,0.050,-0.010
-0.070,-0.035,0.035,0.052,-0.052,0.000,0.130,0.135,0.130,0.055,0.050,-0.010
-0.065,-0.031,0.034,0.047,-0.050,0.001,0.134,0.139,0.142,0.059,0.050,-0.010
-0.068,-0.030,0.039,0.049,-0.053,0.004,0.135,0.140,0.150,0.060,0.050,-0.010
-0.069,-0.030,0.039,0.049,-0.054,0.004,0.135,0.141,0.149,0.062,0.050,-0.010
-0.065,-0.030,0.034,0.047,-0.050,0.002,0.135,0.148,0.152,0.065,0.051,-0.010
-0.065,-0.030,0.035,0.047,-0.050,0.002,0.135,0.160,0.160,0.065,0.055,-0.010
-0.061,-0.026,0.035,0.043,-0.048,0.005,0.135,0.168,0.160,0.069,0.059,-0.010
-0.060,-0.025,0.035,0.042,-0.047,0.005,0.135,0.174,0.160,0.071,0.063,-0.007
-0.060,-0.025,0.035,0.042,-0.047,0.005,0.135,0.175,0.160,0.069,0.066,-0.004
-0.060,-0.025,0.035,0.042,-0.047,0.005,0.136,0.175,0.160,0.071,0.065,-0.005
-0.060,-0.025,0.035,0.042,-0.047,0.005,0.140,0.175,0.160,0.075,0.065,-0.005
-0.060,-0.025,0.035,0.042,-0.047,0.005,0.140,0.174,0.168,0.075,0.069,-0.005
-0.057,-0.022,0.035,0.039,-0.046,0.006,0.140,0.180,0.172,0.074,0.071,-0.005
-0.055,-0.019,0.035,0.037,-0.045,0.007,0.140,0.189,0.181,0.077,0.070,-0.005
-0.055,-0.020,0.035,0.037,-0.045,0.007,0.140,0.197,0.192,0.080,0.071,-0.005
-0.055,-0.020,0.035,0.037,-0.045,0.007,0.140,0.205,0.195,0.080,0.075,-0.005
-0.056,-0.020,0.035,0.038,-0.046,0.007,0.140,0.213,0.199,0.080,0.079,-0.005
-0.049,-0.017,0.032,0.033,-0.040,0.007,0.139,0.219,0.204,0.080,0.080,-0.002
-0.044,-0.014,0.029,0.029,-0.036,0.007,0.142,0.219,0.205,0.082,0.080,0.000
-0.045,-0.015,0.030,0.030,-0.037,0.007,0.145,0.222,0.206,0.086,0.080,0.001
-0.045,-0.015,0.030,0.030,-0.037,0.007,0.145,0.235,0.210,0.090,0.080,0.005
-0.045,-0.015,0.030,0.030,-0.037,0.007,0.145,0.239,0.209,0.094,0.084,0.005
-0.046,-0.016,0.030,0.031,-0.037,0.007,0.145,0.246,0.219,0.095,0.088,0.004
-0.043,-0.013,0.030,0.028,-0.036,0.008,0.145,0.254,0.228,0.097,0.092,0.007
-0.040,-0.010,0.030,0.025,-0.035,0.010,0.145,0.263,0.231,0.100,0.095,0.010
-0.040,-0.010,0.030,0.025,-0.035,0.010,0.145,0.275,0.240,0.100,0.095,0.010
-0.036,-0.006,0.030,0.021,-0.032,0.012,0.149,0.284,0.248,0.104,0.095,0.014
-0.035,-0.005,0.030,0.020,-0.032,0.012,0.150,0.288,0.253,0.105,0.094,0.016
-0.033,-0.003,0.030,0.018,-0.031,0.013,0.152,0.292,0.257,0.106,0.097,0.014
-0.029,0.001,0.030,0.014,-0.030,0.015,0.155,0.296,0.261,0.111,0.100,0.016
-0.030,0.000,0.030,0.015,-0.030,0.015,0.155,0.305,0.270,0.115,0.100,0.020
-0.035,-0.001,0.034,0.017,-0.034,0.016,0.159,0.322,0.282,0.119,0.104,0.020
-0.032,0.003,0.035,0.014,-0.034,0.019,0.160,0.328,0.291,0.123,0.105,0.023
-0.030,0.005,0.035,0.012,-0.033,0.020,0.162,0.337,0.301,0.128,0.107,0.026
-0.029,0.006,0.034,0.011,-0.032,0.020,0.165,0.354,0.311,0.130,0.110,0.025
-0.025,0.010,0.035,0.007,-0.030,0.022,0.165,0.365,0.315,0.130,0.110,0.025
-0.037,0.010,0.047,0.014,-0.042,0.028,0.169,0.376,0.331,0.138,0.122,0.029
-0.041,0.013,0.054,0.014,-0.048,0.034,0.174,0.392,0.342,0.144,0.129,0.031
-0.039,0.016,0.055,0.011,-0.048,0.035,0.175,0.406,0.349,0.147,0.130,0.029
-0.040,0.014,0.055,0.013,-0.048,0.035,0.175,0.419,0.356,0.151,0.130,0.031
-0.040,0.015,0.055,0.012,-0.048,0.035,0.175,0.435,0.360,0.155,0.130,0.035
-0.032,0.023,0.055,0.004,-0.044,0.039,0.175,0.442,0.372,0.159,0.130,0.035
-0.027,0.028,0.055,-0.001,-0.041,0.041,0.178,0.457,0.385,0.163,0.133,0.035
-0.023,0.032,0.055,-0.005,-0.039,0.043,0.180,0.469,0.394,0.167,0.135,0.035
-0.019,0.035,0.055,-0.009,-0.038,0.045,0.181,0.479,0.402,0.171,0.136,0.036
-0.020,0.035,0.055,-0.008,-0.038,0.045,0.190,0.500,0.415,0.180,0.140,0.040
-0.025,0.034,0.059,-0.005,-0.043,0.046,0.195,0.515,0.431,0.193,0.140,0.044
-0.019,0.041,0.060,-0.011,-0.040,0.050,0.194,0.538,0.443,0.199,0.145,0.048
-0.013,0.046,0.060,-0.017,-0.037,0.053,0.200,0.559,0.460,0.201,0.157,0.052
-0.016,0.044,0.060,-0.014,-0.038,0.052,0.212,0.574,0.479,0.207,0.167,0.055
-0.015,0.045,0.060,-0.015,-0.038,0.052,0.215,0.590,0.490,0.215,0.170,0.055
-0.002,0.058,0.060,-0.028,-0.031,0.059,0.215,0.601,0.506,0.223,0.174,0.059
0.000,0.060,0.060,-0.030,-0.030,0.060,0.218,0.620,0.519,0.231,0.178,0.060
0.005,0.065,0.060,-0.035,-0.028,0.063,0.220,0.638,0.534,0.239,0.182,0.063
0.018,0.077,0.059,-0.048,-0.021,0.068,0.221,0.656,0.555,0.247,0.186,0.073
0.025,0.080,0.055,-0.053,-0.015,0.067,0.225,0.685,0.575,0.255,0.190,0.080
0.029,0.084,0.055,-0.057,-0.013,0.069,0.229,0.706,0.592,0.267,0.194,0.080
0.031,0.087,0.056,-0.060,-0.012,0.071,0.233,0.722,0.603,0.277,0.201,0.080
0.043,0.096,0.053,-0.070,-0.005,0.074,0.235,0.739,0.619,0.281,0.209,0.081
0.057,0.106,0.050,-0.081,0.003,0.077,0.235,0.760,0.640,0.288,0.216,0.088
0.055,0.105,0.050,-0.080,0.002,0.077,0.235,0.780,0.660,0.305,0.220,0.100
0.054,0.104,0.050,-0.079,0.002,0.077,0.235,0.796,0.676,0.314,0.224,0.105
0.059,0.110,0.050,-0.084,0.004,0.080,0.237,0.812,0.691,0.317,0.227,0.105
0.074,0.122,0.048,-0.098,0.012,0.084,0.243,0.829,0.710,0.325,0.235,0.107
0.087,0.131,0.045,-0.109,0.021,0.087,0.244,0.851,0.730,0.338,0.249,0.119
0.085,0.130,0.045,-0.108,0.020,0.087,0.240,0.875,0.750,0.350,0.260,0.135
0.084,0.130,0.045,-0.108,0.019,0.087,0.240,0.895,0.771,0.358,0.264,0.136
0.090,0.132,0.042,-0.111,0.024,0.086,0.237,0.916,0.786,0.366,0.271,0.134
0.101,0.141,0.040,-0.121,0.031,0.090,0.234,0.933,0.808,0.376,0.276,0.138
0.112,0.152,0.040,-0.132,0.036,0.096,0.235,0.950,0.836,0.388,0.283,0.147
0.115,0.155,0.040,-0.135,0.037,0.097,0.235,0.970,0.855,0.400,0.300,0.155
0.119,0.159,0.040,-0.139,0.039,0.100,0.231,0.978,0.871,0.409,0.304,0.159
0.125,0.162,0.037,-0.143,0.044,0.099,0.229,0.991,0.886,0.411,0.310,0.168
0.122,0.156,0.035,-0.139,0.043,0.095,0.231,1.009,0.908,0.424,0.322,0.182
0.123,0.158,0.035,-0.141,0.043,0.097,0.229,1.023,0.929,0.436,0.331,0.191
0.140,0.175,0.035,-0.158,0.052,0.105,0.225,1.035,0.940,0.435,0.335,0.195
0.136,0.172,0.036,-0.154,0.050,0.103,0.225,1.051,0.965,0.455,0.348,0.207
0.140,0.169,0.029,-0.155,0.055,0.099,0.226,1.066,0.979,0.467,0.352,0.214
0.149,0.171,0.022,-0.160,0.063,0.096,0.223,1.069,0.996,0.474,0.362,0.215
0.150,0.169,0.019,-0.159,0.065,0.094,0.219,1.065,1.019,0.481,0.378,0.216
0.155,0.170,0.015,-0.163,0.070,0.092,0.220,1.065,1.025,0.485,0.380,0.220
0.180,0.187,0.007,-0.184,0.087,0.096,0.221,1.061,1.028,0.489,0.380,0.220
0.187,0.188,0.001,-0.188,0.092,0.094,0.215,1.060,1.037,0.494,0.383,0.225
0.186,0.184,-0.002,-0.185,0.093,0.091,0.205,1.058,1.039,0.495,0.387,0.234
0.191,0.184,-0.007,-0.187,0.098,0.089,0.199,1.055,1.034,0.496,0.391,0.242
0.195,0.180,-0.015,-0.187,0.105,0.082,0.195,1.055,1.035,0.500,0.395,0.245
0.203,0.180,-0.023,-0.191,0.113,0.078,0.187,1.040,1.035,0.501,0.396,0.245
0.208,0.177,-0.031,-0.192,0.119,0.073,0.178,1.023,1.032,0.497,0.392,0.248
0.214,0.175,-0.039,-0.194,0.126,0.068,0.173,1.007,1.029,0.493,0.388,0.251
0.221,0.174,-0.047,-0.197,0.134,0.064,0.168,0.992,1.031,0.490,0.384,0.249
0.225,0.170,-0.055,-0.197,0.140,0.057,0.155,0.980,1.030,0.490,0.380,0.245
0.234,0.170,-0.064,-0.202,0.149,0.053,0.147,0.956,1.018,0.486,0.380,0.245
0.229,0.167,-0.062,-0.198,0.146,0.052,0.139,0.933,1.008,0.481,0.378,0.245
0.225,0.165,-0.060,-0.195,0.142,0.052,0.131,0.905,0.987,0.481,0.372,0.245
0.223,0.164,-0.059,-0.193,0.141,0.052,0.123,0.872,0.959,0.478,0.370,0.245
0.210,0.155,-0.055,-0.182,0.132,0.050,0.115,0.840,0.935,0.465,0.370,0.245
0.202,0.146,-0.055,-0.174,0.128,0.046,0.107,0.807,0.903,0.453,0.366,0.246
0.194,0.142,-0.052,-0.168,0.123,0.045,0.098,0.780,0.871,0.440,0.361,0.240
0.186,0.137,-0.049,-0.161,0.118,0.044,0.093,0.746,0.839,0.432,0.361,0.231
0.178,0.128,-0.050,-0.153,0.114,0.039,0.088,0.706,0.808,0.421,0.358,0.223
0.170,0.120,-0.050,-0.145,0.110,0.035,0.080,0.670,0.775,0.400,0.345,0.215
0.162,0.116,-0.046,-0.139,0.103,0.035,0.076,0.627,0.731,0.384,0.333,0.207
0.155,0.109,-0.045,-0.131,0.099,0.032,0.069,0.581,0.690,0.368,0.321,0.199
0.144,0.101,-0.043,-0.122,0.093,0.029,0.063,0.541,0.650,0.352,0.311,0.191
0.133,0.093,-0.040,-0.113,0.086,0.026,0.059,0.506,0.611,0.336,0.302,0.182
0.125,0.085,-0.040,-0.105,0.082,0.022,0.055,0.470,0.575,0.320,0.290,0.170
0.113,0.077,-0.036,-0.095,0.074,0.020,0.055,0.434,0.535,0.304,0.278,0.162
0.103,0.069,-0.034,-0.086,0.068,0.017,0.055,0.398,0.495,0.288,0.266,0.155
0.097,0.061,-0.036,-0.079,0.066,0.013,0.055,0.362,0.456,0.272,0.256,0.144
0.086,0.053,-0.033,-0.069,0.059,0.010,0.055,0.327,0.422,0.256,0.247,0.133
0.070,0.045,-0.025,-0.057,0.047,0.010,0.055,0.295,0.390,0.240,0.235,0.125
0.061,0.041,-0.021,-0.051,0.041,0.010,0.055,0.263,0.358,0.224,0.223,0.117
0.055,0.037,-0.018,-0.046,0.036,0.010,0.056,0.233,0.329,0.208,0.214,0.109
0.044,0.033,-0.011,-0.038,0.027,0.011,0.053,0.207,0.301,0.194,0.205,0.101
0.033,0.029,-0.004,-0.030,0.018,0.012,0.050,0.185,0.274,0.182,0.192,0.093
0.025,0.025,0.000,-0.025,0.012,0.012,0.050,0.165,0.250,0.170,0.180,0.085
0.017,0.021,0.004,-0.020,0.007,0.012,0.050,0.145,0.222,0.158,0.172,0.077
0.008,0.017,0.009,-0.013,0.000,0.012,0.050,0.125,0.196,0.149,0.164,0.069
0.003,0.013,0.010,-0.008,-0.004,0.011,0.050,0.105,0.176,0.140,0.156,0.061
-0.002,0.009,0.011,-0.004,-0.006,0.010,0.050,0.086,0.161,0.127,0.148,0.053
-0.010,0.005,0.015,0.002,-0.013,0.010,0.050,0.070,0.145,0.115,0.140,0.045
-0.010,0.005,0.015,0.002,-0.013,0.010,0.050,0.057,0.129,0.107,0.132,0.041
-0.012,0.003,0.014,0.004,-0.013,0.008,0.047,0.049,0.113,0.099,0.124,0.038
-0.020,-0.003,0.017,0.011,-0.018,0.007,0.044,0.039,0.099,0.092,0.118,0.031
-0.025,-0.005,0.020,0.015,-0.022,0.007,0.045,0.028,0.087,0.089,0.114,0.024
-0.025,-0.005,0.020,0.015,-0.022,0.007,0.045,0.020,0.075,0.085,0.110,0.020
-0.033,-0.009,0.024,0.020,-0.028,0.007,0.045,0.008,0.067,0.077,0.106,0.016
-0.039,-0.014,0.025,0.026,-0.032,0.006,0.045,-0.001,0.057,0.072,0.101,0.011
-0.040,-0.015,0.025,0.027,-0.032,0.005,0.045,-0.009,0.044,0.068,0.100,0.010
-0.040,-0.016,0.024,0.027,-0.032,0.004,0.045,-0.016,0.033,0.064,0.099,0.009
-0.040,-0.020,0.020,0.030,-0.030,0.000,0.045,-0.020,0.025,0.060,0.095,0.005
-0.044,-0.024,0.020,0.034,-0.031,-0.002,0.045,-0.024,0.021,0.056,0.091,0.005
-0.048,-0.028,0.020,0.038,-0.034,-0.004,0.048,-0.031,0.017,0.052,0.090,0.002
-0.052,-0.032,0.020,0.042,-0.036,-0.006,0.051,-0.038,0.013,0.048,0.089,-0.001
-0.056,-0.036,0.020,0.046,-0.038,-0.008,0.050,-0.041,0.009,0.044,0.084,0.000
-0.060,-0.040,0.020,0.050,-0.040,-0.010,0.050,-0.045,0.005,0.040,0.080,0.000
-0.060,-0.040,0.020,0.050,-0.040,-0.010,0.050,-0.049,0.001,0.036,0.080,-0.004
-0.060,-0.040,0.020,0.050,-0.040,-0.010,0.050,-0.050,-0.003,0.031,0.077,-0.005
-0.060,-0.040,0.020,0.050,-0.040,-0.010,0.050,-0.050,-0.007,0.030,0.074,-0.007
-0.060,-0.040,0.020,0.050,-0.040,-0.010,0.050,-0.050,-0.010,0.029,0.075,-0.010
-0.060,-0.040,0.020,0.050,-0.040,-0.010,0.050,-0.050,-0.010,0.025,0.075,-0.010
-0.060,-0.040,0.020,0.050,-0.040,-0.010,0.050,-0.046,-0.010,0.025,0.075,-0.014
-0.061,-0.040,0.021,0.050,-0.041,-0.010,0.050,-0.045,-0.013,0.022,0.072,-0.016
-0.058,-0.040,0.018,0.049,-0.038,-0.011,0.050,-0.045,-0.016,0.020,0.069,-0.015
-0.055,-0.040,0.015,0.047,-0.035,-0.012,0.050,-0.045,-0.015,0.019,0.070,-0.016
-0.055,-0.040,0.015,0.047,-0.035,-0.012,0.050,-0.045,-0.015,0.015,0.070,-0.020
-0.055,-0.040,0.015,0.047,-0.035,-0.012,0.050,-0.045,-0.019,0.015,0.070,-0.024
-0.058,-0.043,0.015,0.050,-0.036,-0.014,0.050,-0.045,-0.021,0.016,0.067,-0.028
-0.061,-0.046,0.015,0.053,-0.037,-0.015,0.050,-0.045,-0.019,0.013,0.064,-0.030
-0.060,-0.045,0.015,0.052,-0.037,-0.015,0.050,-0.045,-0.021,0.010,0.065,-0.030
-0.060,-0.045,0.015,0.052,-0.037,-0.015,0.050,-0.045,-0.025,0.010,0.065,-0.030
-0.060,-0.045,0.015,0.052,-0.037,-0.015,0.050,-0.045,-0.025,0.006,0.065,-0.030
-0.060,-0.045,0.015,0.052,-0.037,-0.015,0.050,-0.045,-0.024,0.005,0.066,-0.030
-0.060,-0.045,0.015,0.052,-0.037,-0.015,0.050,-0.045,-0.027,0.003,0.063,-0.030
-0.061,-0.046,0.015,0.053,-0.038,-0.015,0.050,-0.044,-0.030,0.000,0.060,-0.030
-0.065,-0.050,0.015,0.057,-0.040,-0.017,0.050,-0.040,-0.030,0.000,0.060,-0.030
-0.065,-0.050,0.015,0.057,-0.040,-0.017,0.050,-0.040,-0.030,-0.004,0.060,-0.030
-0.068,-0.050,0.018,0.059,-0.043,-0.016,0.050,-0.040,-0.033,-0.005,0.061,-0.030
-0.071,-0.050,0.021,0.060,-0.046,-0.015,0.050,-0.040,-0.036,-0.005,0.058,-0.030
-0.070,-0.050,0.020,0.060,-0.045,-0.015,0.051,-0.040,-0.035,-0.004,0.055,-0.030
-0.070,-0.050,0.020,0.060,-0.045,-0.015,0.055,-0.040,-0.035,0.000,0.055,-0.030
-0.074,-0.054,0.020,0.064,-0.047,-0.017,0.055,-0.040,-0.039,0.000,0.055,-0.030
-0.075,-0.055,0.020,0.065,-0.047,-0.017,0.055,-0.040,-0.040,0.000,0.055,-0.030
-0.075,-0.055,0.020,0.065,-0.047,-0.017,0.055,-0.040,-0.040,0.000,0.055,-0.030
-0.075,-0.055,0.020,0.065,-0.047,-0.017,0.055,-0.040,-0.040,0.000,0.055,-0.030
-0.075,-0.055,0.020,0.065,-0.047,-0.017,0.055,-0.040,-0.040,0.000,0.055,-0.030
-0.076,-0.055,0.020,0.065,-0.047,-0.017,0.055,-0.040,-0.044,0.000,0.055,-0.030
-0.071,-0.052,0.019,0.062,-0.045,-0.016,0.055,-0.039,-0.045,0.000,0.055,-0.030
-0.071,-0.049,0.022,0.060,-0.047,-0.014,0.055,-0.042,-0.045,0.000,0.055,-0.030
-0.076,-0.050,0.025,0.062,-0.050,-0.012,0.055,-0.045,-0.045,0.000,0.055,-0.030
-0.075,-0.050,0.025,0.062,-0.050,-0.012,0.055,-0.045,-0.045,0.000,0.055,-0.030
-0.075,-0.050,0.025,0.062,-0.050,-0.012,0.055,-0.045,-0.045,0.000,0.055,-0.029
-0.075,-0.050,0.025,0.062,-0.050,-0.012,0.055,-0.045,-0.045,0.000,0.055,-0.034
-0.075,-0.050,0.025,0.062,-0.050,-0.012,0.055,-0.045,-0.045,0.000,0.055,-0.034
-0.075,-0.050,0.025,0.062,-0.050,-0.012,0.055,-0.045,-0.046,0.000,0.055,-0.029
-0.075,-0.050,0.025,0.062,-0.050,-0.012,0.055,-0.045,-0.050,0.000,0.055,-0.030
-0.071,-0.046,0.025,0.058,-0.047,-0.010,0.055,-0.045,-0.050,0.000,0.055,-0.030
-0.070,-0.045,0.025,0.057,-0.047,-0.010,0.055,-0.048,-0.050,0.000,0.055,-0.030
-0.070,-0.045,0.025,0.057,-0.047,-0.010,0.055,-0.051,-0.050,0.000,0.055,-0.030
-0.071,-0.045,0.026,0.057,-0.048,-0.009,0.055,-0.050,-0.050,0.000,0.055,-0.030
-0.075,-0.045,0.030,0.060,-0.052,-0.007,0.055,-0.050,-0.050,0.000,0.055,-0.030
-0.075,-0.045,0.030,0.060,-0.052,-0.007,0.055,-0.050,-0.050,0.000,0.055,-0.030
-0.075,-0.045,0.030,0.060,-0.052,-0.007,0.055,-0.050,-0.049,0.000,0.055,-0.027
-0.075,-0.045,0.030,0.060,-0.052,-0.007,0.055,-0.050,-0.052,0.000,0.055,-0.024
-0.074,-0.044,0.030,0.059,-0.052,-0.007,0.055,-0.050,-0.055,0.000,0.055,-0.025
-0.070,-0.040,0.030,0.055,-0.050,-0.005,0.055,-0.050,-0.055,0.000,0.055,-0.025
-0.070,-0.040,0.030,0.055,-0.050,-0.005,0.055,-0.054,-0.059,0.000,0.055,-0.025
-0.070,-0.040,0.030,0.055,-0.050,-0.005,0.052,-0.055,-0.060,-0.003,0.055,-0.025
-0.070,-0.040,0.030,0.055,-0.050,-0.005,0.049,-0.055,-0.060,-0.006,0.055,-0.025
-0.070,-0.040,0.030,0.055,-0.050,-0.005,0.050,-0.055,-0.060,-0.005,0.055,-0.025
-0.070,-0.040,0.030,0.055,-0.050,-0.005,0.050,-0.055,-0.060,-0.005,0.055,-0.025
-0.070,-0.040,0.030,0.055,-0.050,-0.005,0.050,-0.055,-0.060,-0.005,0.055,-0.021
-0.069,-0.040,0.029,0.055,-0.049,-0.005,0.050,-0.058,-0.059,-0.005,0.052,-0.020
-0.072,-0.040,0.032,0.056,-0.052,-0.004,0.050,-0.061,-0.062,-0.005,0.049,-0.020
-0.075,-0.039,0.035,0.056,-0.055,-0.001,0.050,-0.060,-0.065,-0.005,0.050,-0.020
-0.070,-0.035,0.035,0.052,-0.052,0.000,0.050,-0.060,-0.065,-0.005,0.050,-0.020
-0.070,-0.035,0.035,0.052,-0.052,0.000,0.050,-0.060,-0.065,-0.005,0.050,-0.020
-0.070,-0.035,0.035,0.052,-0.052,0.000,0.050,-0.059,-0.065,-0.005,0.050,-0.020
-0.070,-0.035,0.035,0.052,-0.052,0.000,0.050,-0.062,-0.065,-0.005,0.050,-0.020
-0.070,-0.035,0.035,0.052,-0.052,0.000,0.050,-0.065,-0.065,-0.005,0.050,-0.020
-0.070,-0.035,0.035,0.052,-0.052,0.000,0.050,-0.065,-0.065,-0.005,0.050,-0.020
-0.070,-0.035,0.035,0.052,-0.052,0.000,0.046,-0.065,-0.065,-0.009,0.050,-0.024
-0.071,-0.036,0.035,0.053,-0.052,0.000,0.045,-0.065,-0.065,-0.010,0.050,-0.025
-0.068,-0.033,0.035,0.050,-0.051,0.001,0.045,-0.065,-0.065,-0.010,0.050,-0.025
-0.065,-0.030,0.035,0.047,-0.050,0.002,0.045,-0.065,-0.065,-0.010,0.050,-0.025
-0.065,-0.030,0.035,0.047,-0.050,0.002,0.045,-0.065,-0.065,-0.010,0.050,-0.025
-0.065,-0.030,0.035,0.047,-0.050,0.002,0.045,-0.069,-0.065,-0.010,0.046,-0.025
-0.068,-0.030,0.038,0.049,-0.053,0.004,0.045,-0.070,-0.065,-0.010,0.045,-0.028
-0.071,-0.030,0.041,0.050,-0.056,0.005,0.045,-0.070,-0.065,-0.010,0.045,-0.031
-0.070,-0.030,0.040,0.050,-0.055,0.005,0.045,-0.070,-0.065,-0.010,0.045,-0.030
-0.070,-0.030,0.040,0.050,-0.055,0.005,0.045,-0.070,-0.065,-0.010,0.045,-0.030
-0.070,-0.030,0.040,0.050,-0.055,0.005,0.045,-0.074,-0.069,-0.010,0.045,-0.030
-0.067,-0.027,0.040,0.047,-0.053,0.006,0.045,-0.076,-0.073,-0.010,0.045,-0.029
-0.065,-0.024,0.040,0.045,-0.052,0.007,0.045,-0.074,-0.077,-0.010,0.045,-0.032
-0.065,-0.025,0.040,0.045,-0.052,0.007,0.046,-0.076,-0.081,-0.011,0.045,-0.035
-0.065,-0.025,0.040,0.045,-0.052,0.007,0.050,-0.080,-0.085,-0.015,0.045,-0.035
-0.069,-0.025,0.044,0.047,-0.056,0.010,0.050,-0.080,-0.085,-0.015,0.045,-0.035
-0.070,-0.025,0.045,0.047,-0.057,0.010,0.050,-0.079,-0.085,-0.018,0.045,-0.035
-0.070,-0.025,0.045,0.047,-0.057,0.010,0.050,-0.082,-0.085,-0.021,0.045,-0.035
-0.070,-0.025,0.045,0.047,-0.057,0.010,0.050,-0.085,-0.085,-0.020,0.044,-0.035
-0.070,-0.025,0.045,0.047,-0.057,0.010,0.050,-0.085,-0.085,-0.020,0.040,-0.035
-0.070,-0.025,0.045,0.047,-0.057,0.010,0.050,-0.085,-0.085,-0.024,0.040,-0.035
-0.067,-0.022,0.045,0.044,-0.056,0.011,0.050,-0.088,-0.088,-0.026,0.040,-0.038
-0.064,-0.019,0.045,0.041,-0.054,0.012,0.050,-0.091,-0.091,-0.024,0.040,-0.041
-0.066,-0.020,0.046,0.043,-0.056,0.012,0.050,-0.090,-0.090,-0.026,0.039,-0.040
-0.070,-0.020,0.050,0.045,-0.060,0.015,0.050,-0.090,-0.090,-0.030,0.035,-0.040
-0.070,-0.020,0.050,0.045,-0.060,0.015,0.050,-0.094,-0.090,-0.030,0.035,-0.040
-0.070,-0.020,0.050,0.045,-0.060,0.015,0.050,-0.095,-0.090,-0.029,0.035,-0.040
-0.070,-0.020,0.050,0.045,-0.060,0.015,0.050,-0.097,-0.089,-0.032,0.035,-0.040
-0.070,-0.020,0.050,0.045,-0.060,0.015,0.050,-0.100,-0.092,-0.035,0.034,-0.040
-0.070,-0.020,0.050,0.045,-0.060,0.015,0.050,-0.100,-0.105,-0.035,0.030,-0.040
-0.070,-0.020,0.050,0.045,-0.060,0.015,0.050,-0.104,-0.110,-0.035,0.030,-0.044
-0.067,-0.020,0.047,0.043,-0.057,0.013,0.050,-0.105,-0.110,-0.035,0.030,-0.045
-0.064,-0.020,0.044,0.041,-0.054,0.012,0.050,-0.105,-0.110,-0.035,0.030,-0.047
-0.065,-0.020,0.045,0.042,-0.055,0.012,0.050,-0.105,-0.111,-0.035,0.030,-0.050
-0.070,-0.020,0.050,0.045,-0.060,0.015,0.050,-0.105,-0.115,-0.035,0.030,-0.050
-0.079,-0.016,0.063,0.047,-0.071,0.024,0.050,-0.105,-0.115,-0.035,0.026,-0.050
-0.078,-0.015,0.063,0.046,-0.070,0.024,0.050,-0.104,-0.114,-0.035,0.025,-0.050
-0.074,-0.015,0.059,0.045,-0.066,0.021,0.050,-0.107,-0.117,-0.035,0.025,-0.050
-0.075,-0.015,0.060,0.045,-0.067,0.022,0.050,-0.110,-0.120,-0.035,0.025,-0.050
-0.075,-0.015,0.060,0.045,-0.067,0.022,0.050,-0.110,-0.120,-0.035,0.025,-0.050
-0.075,-0.015,0.060,0.045,-0.067,0.022,0.050,-0.114,-0.120,-0.034,0.021,-0.050
-0.075,-0.015,0.060,0.045,-0.067,0.022,0.053,-0.115,-0.120,-0.041,0.020,-0.050
-0.075,-0.015,0.060,0.045,-0.067,0.022,0.056,-0.117,-0.120,-0.048,0.020,-0.050
-0.075,-0.015,0.060,0.045,-0.067,0.022,0.055,-0.120,-0.120,-0.050,0.020,-0.050
-0.075,-0.015,0.060,0.045,-0.067,0.022,0.055,-0.120,-0.120,-0.050,0.020,-0.050
-0.075,-0.015,0.060,0.045,-0.067,0.022,0.055,-0.120,-0.124,-0.050,0.020,-0.050
-0.075,-0.015,0.060,0.045,-0.067,0.022,0.055,-0.120,-0.125,-0.050,0.017,-0.050
-0.074,-0.014,0.060,0.044,-0.066,0.022,0.055,-0.120,-0.127,-0.050,0.014,-0.050
-0.077,-0.017,0.060,0.047,-0.068,0.021,0.055,-0.120,-0.130,-0.050,0.015,-0.050
-0.085,-0.025,0.060,0.055,-0.072,0.017,0.055,-0.120,-0.130,-0.050,0.015,-0.050
-0.077,-0.021,0.056,0.049,-0.066,0.017,0.055,-0.120,-0.134,-0.050,0.015,-0.050
-0.074,-0.019,0.055,0.046,-0.064,0.017,0.055,-0.120,-0.135,-0.050,0.015,-0.050
-0.075,-0.020,0.055,0.047,-0.065,0.017,0.055,-0.120,-0.135,-0.050,0.015,-0.050
-0.075,-0.020,0.055,0.047,-0.065,0.017,0.055,-0.121,-0.135,-0.050,0.015,-0.050
-0.075,-0.020,0.055,0.047,-0.065,0.017,0.055,-0.125,-0.135,-0.050,0.015,-0.050
-0.075,-0.020,0.055,0.047,-0.065,0.017,0.055,-0.125,-0.135,-0.050,0.015,-0.050
-0.075,-0.020,0.055,0.047,-0.065,0.017,0.055,-0.125,-0.135,-0.050,0.015,-0.050
-0.075,-0.020,0.055,0.047,-0.065,0.017,0.055,-0.125,-0.135,-0.050,0.015,-0.050
-0.075,-0.020,0.055,0.047,-0.065,0.017,0.055,-0.125,-0.135,-0.050,0.015,-0.050
-0.075,-0.020,0.055,0.047,-0.065,0.017,0.055,-0.125,-0.135,-0.050,0.015,-0.050
-0.075,-0.020,0.055,0.047,-0.065,0.017,0.055,-0.125,-0.135,-0.050,0.015,-0.050
-0.075,-0.020,0.055,0.047,-0.065,0.017,0.055,-0.125,-0.134,-0.050,0.015,-0.050
-0.075,-0.020,0.055,0.047,-0.065,0.017,0.055,-0.125,-0.137,-0.050,0.015,-0.051
-0.076,-0.020,0.056,0.047,-0.066,0.017,0.055,-0.125,-0.140,-0.050,0.015,-0.056
-0.080,-0.020,0.060,0.050,-0.070,0.020,0.055,-0.125,-0.140,-0.050,0.015,-0.060
-0.080,-0.020,0.060,0.050,-0.070,0.020,0.055,-0.129,-0.144,-0.050,0.015,-0.056
-0.080,-0.020,0.060,0.050,-0.070,0.020,0.055,-0.130,-0.145,-0.050,0.015,-0.054
-0.080,-0.020,0.060,0.050,-0.070,0.020,0.055,-0.130,-0.147,-0.050,0.015,-0.055
-0.080,-0.020,0.060,0.050,-0.070,0.020,0.055,-0.130,-0.150,-0.050,0.015,-0.055
-0.080,-0.020,0.060,0.050,-0.070,0.020,0.055,-0.130,-0.150,-0.050,0.015,-0.055
-0.080,-0.020,0.060,0.050,-0.070,0.020,0.055,-0.130,-0.150,-0.050,0.015,-0.055
-0.080,-0.020,0.060,0.050,-0.070,0.020,0.055,-0.130,-0.150,-0.050,0.015,-0.055
-0.080,-0.020,0.060,0.050,-0.070,0.020,0.055,-0.130,-0.150,-0.051,0.015,-0.055
-0.080,-0.020,0.060,0.050,-0.070,0.020,0.055,-0.130,-0.150,-0.056,0.015,-0.055
-0.080,-0.020,0.060,0.050,-0.070,0.020,0.055,-0.130,-0.150,-0.060,0.015,-0.055
-0.080,-0.020,0.060,0.050,-0.070,0.020,0.055,-0.130,-0.150,-0.060,0.015,-0.055
-0.080,-0.020,0.060,0.050,-0.070,0.020,0.055,-0.130,-0.150,-0.060,0.015,-0.055
-0.080,-0.020,0.060,0.050,-0.070,0.020,0.055,-0.130,-0.150,-0.060,0.015,-0.055
-0.080,-0.020,0.060,0.050,-0.070,0.020,0.055,-0.130,-0.150,-0.060,0.015,-0.054
-0.080,-0.020,0.060,0.050,-0.070,0.020,0.055,-0.130,-0.150,-0.060,0.015,-0.050
-0.080,-0.020,0.060,0.050,-0.070,0.020,0.055,-0.130,-0.150,-0.060,0.015,-0.050
-0.078,-0.018,0.060,0.048,-0.069,0.021,0.055,-0.130,-0.148,-0.060,0.015,-0.050
-0.086,-0.026,0.060,0.056,-0.073,0.017,0.055,-0.130,-0.156,-0.060,0.015,-0.050
-0.095,-0.035,0.060,0.065,-0.077,0.012,0.055,-0.130,-0.166,-0.060,0.015,-0.050
-0.090,-0.030,0.060,0.060,-0.075,0.015,0.055,-0.130,-0.165,-0.060,0.015,-0.050
-0.090,-0.030,0.060,0.060,-0.075,0.015,0.055,-0.130,-0.165,-0.060,0.015,-0.050
-0.090,-0.030,0.060,0.060,-0.075,0.015,0.055,-0.130,-0.165,-0.060,0.015,-0.050
-0.090,-0.030,0.060,0.060,-0.075,0.015,0.055,-0.130,-0.165,-0.060,0.015,-0.050
-0.090,-0.030,0.060,0.060,-0.075,0.015,0.055,-0.130,-0.165,-0.060,0.015,-0.050
-0.090,-0.030,0.060,0.060,-0.075,0.015,0.055,-0.130,-0.165,-0.060,0.015,-0.050
-0.090,-0.030,0.060,0.060,-0.075,0.015,0.055,-0.130,-0.165,-0.060,0.015,-0.050
-0.090,-0.030,0.060,0.060,-0.075,0.015,0.055,-0.130,-0.165,-0.060,0.015,-0.050
-0.090,-0.030,0.060,0.060,-0.075,0.015,0.055,-0.130,-0.165,-0.060,0.015,-0.050
-0.090,-0.030,0.060,0.060,-0.075,0.015,0.055,-0.130,-0.165,-0.060,0.015,-0.050
-0.090,-0.030,0.060,0.060,-0.075,0.015,0.055,-0.130,-0.165,-0.060,0.015,-0.050
-0.090,-0.030,0.060,0.060,-0.075,0.015,0.055,-0.130,-0.165,-0.060,0.015,-0.050
-0.091,-0.031,0.060,0.061,-0.075,0.015,0.052,-0.130,-0.165,-0.060,0.015,-0.050
-0.088,-0.028,0.060,0.058,-0.074,0.016,0.049,-0.130,-0.165,-0.060,0.015,-0.050
-0.085,-0.025,0.060,0.055,-0.072,0.017,0.050,-0.130,-0.165,-0.060,0.015,-0.050
-0.085,-0.025,0.060,0.055,-0.072,0.017,0.050,-0.130,-0.165,-0.060,0.015,-0.050
-0.085,-0.025,0.060,0.055,-0.072,0.017,0.050,-0.130,-0.165,-0.060,0.015,-0.050
-0.085,-0.025,0.060,0.055,-0.072,0.017,0.050,-0.130,-0.165,-0.059,0.012,-0.050
-0.085,-0.025,0.060,0.055,-0.072,0.017,0.050,-0.130,-0.165,-0.062,0.009,-0.050
-0.085,-0.025,0.060,0.055,-0.072,0.017,0.050,-0.130,-0.165,-0.065,0.010,-0.050
-0.085,-0.025,0.060,0.055,-0.072,0.017,0.050,-0.130,-0.165,-0.065,0.010,-0.050
-0.085,-0.025,0.060,0.055,-0.072,0.017,0.050,-0.134,-0.165,-0.069,0.010,-0.050
-0.085,-0.025,0.060,0.055,-0.072,0.017,0.050,-0.136,-0.165,-0.070,0.011,-0.050
-0.085,-0.025,0.060,0.055,-0.072,0.017,0.050,-0.134,-0.165,-0.072,0.008,-0.050
-0.085,-0.025,0.060,0.055,-0.072,0.017,0.050,-0.136,-0.165,-0.075,0.005,-0.050
-0.085,-0.025,0.060,0.055,-0.072,0.017,0.050,-0.140,-0.165,-0.075,0.005,-0.050
-0.085,-0.025,0.060,0.055,-0.072,0.017,0.046,-0.140,-0.165,-0.075,0.005,-0.050
-0.082,-0.022,0.060,0.052,-0.071,0.019,0.045,-0.140,-0.168,-0.075,0.005,-0.050
-0.079,-0.019,0.060,0.049,-0.070,0.020,0.045,-0.138,-0.171,-0.075,0.005,-0.050
-0.080,-0.020,0.060,0.050,-0.070,0.020,0.045,-0.135,-0.170,-0.075,0.005,-0.050
-0.080,-0.020,0.060,0.050,-0.070,0.020,0.045,-0.135,-0.170,-0.075,0.005,-0.050
-0.080,-0.020,0.060,0.050,-0.070,0.020,0.045,-0.135,-0.170,-0.075,0.001,-0.050
-0.080,-0.020,0.060,0.050,-0.070,0.020,0.045,-0.135,-0.170,-0.078,0.000,-0.050
-0.080,-0.020,0.060,0.050,-0.070,0.020,0.045,-0.135,-0.170,-0.081,0.000,-0.050
-0.081,-0.020,0.061,0.050,-0.071,0.020,0.045,-0.135,-0.170,-0.080,0.000,-0.050
-0.085,-0.020,0.065,0.052,-0.075,0.022,0.045,-0.135,-0.170,-0.080,0.000,-0.050
-0.085,-0.020,0.065,0.052,-0.075,0.022,0.045,-0.135,-0.170,-0.080,0.000,-0.046
-0.085,-0.020,0.065,0.052,-0.075,0.022,0.045,-0.135,-0.170,-0.080,-0.003,-0.045
-0.085,-0.020,0.065,0.052,-0.075,0.022,0.045,-0.135,-0.170,-0.080,-0.006,-0.045
-0.085,-0.020,0.065,0.052,-0.075,0.022,0.044,-0.135,-0.170,-0.080,-0.005,-0.045
-0.085,-0.020,0.065,0.052,-0.075,0.022,0.040,-0.135,-0.170,-0.080,-0.005,-0.045
-0.085,-0.020,0.065,0.052,-0.075,0.022,0.040,-0.135,-0.174,-0.084,-0.005,-0.045
-0.085,-0.020,0.065,0.052,-0.075,0.022,0.040,-0.135,-0.175,-0.085,-0.005,-0.045
-0.085,-0.020,0.065,0.052,-0.075,0.022,0.040,-0.135,-0.175,-0.085,-0.005,-0.045
-0.085,-0.020,0.065,0.052,-0.075,0.022,0.040,-0.135,-0.175,-0.085,-0.006,-0.045
-0.085,-0.020,0.065,0.052,-0.075,0.022,0.040,-0.135,-0.175,-0.085,-0.010,-0.045
-0.085,-0.020,0.065,0.052,-0.075,0.022,0.040,-0.135,-0.175,-0.085,-0.010,-0.045
-0.084,-0.020,0.064,0.052,-0.074,0.022,0.040,-0.135,-0.175,-0.085,-0.010,-0.045
-0.087,-0.020,0.067,0.053,-0.077,0.023,0.040,-0.135,-0.175,-0.085,-0.010,-0.045
-0.090,-0.020,0.070,0.055,-0.080,0.025,0.040,-0.135,-0.175,-0.085,-0.010,-0.044
-0.090,-0.020,0.070,0.055,-0.080,0.025,0.040,-0.135,-0.175,-0.085,-0.010,-0.040
-0.090,-0.020,0.070,0.055,-0.080,0.025,0.040,-0.135,-0.175,-0.085,-0.010,-0.040
-0.091,-0.020,0.070,0.055,-0.080,0.025,0.040,-0.135,-0.175,-0.085,-0.009,-0.040
-0.089,-0.019,0.070,0.054,-0.079,0.026,0.040,-0.135,-0.175,-0.085,-0.012,-0.040
-0.093,-0.023,0.070,0.058,-0.081,0.024,0.040,-0.135,-0.175,-0.086,-0.015,-0.040
-0.105,-0.035,0.070,0.070,-0.087,0.017,0.040,-0.135,-0.175,-0.090,-0.015,-0.040
-0.101,-0.031,0.070,0.066,-0.086,0.019,0.040,-0.131,-0.175,-0.090,-0.015,-0.040
-0.100,-0.030,0.070,0.065,-0.085,0.020,0.040,-0.130,-0.175,-0.090,-0.015,-0.040
-0.098,-0.028,0.070,0.063,-0.084,0.021,0.040,-0.130,-0.175,-0.090,-0.015,-0.040
-0.094,-0.024,0.070,0.059,-0.082,0.022,0.040,-0.130,-0.176,-0.090,-0.015,-0.040
-0.095,-0.025,0.070,0.060,-0.082,0.022,0.040,-0.130,-0.180,-0.090,-0.015,-0.040
-0.095,-0.025,0.070,0.060,-0.082,0.022,0.040,-0.130,-0.184,-0.090,-0.015,-0.040
-0.092,-0.022,0.070,0.057,-0.081,0.024,0.040,-0.127,-0.185,-0.090,-0.018,-0.041
-0.089,-0.019,0.070,0.054,-0.080,0.025,0.040,-0.124,-0.185,-0.090,-0.021,-0.038
-0.090,-0.020,0.070,0.055,-0.080,0.025,0.040,-0.125,-0.185,-0.090,-0.020,-0.035
-0.090,-0.020,0.070,0.055,-0.080,0.025,0.040,-0.125,-0.185,-0.090,-0.020,-0.035
-0.086,-0.016,0.070,0.051,-0.078,0.027,0.040,-0.125,-0.185,-0.090,-0.020,-0.035
-0.084,-0.014,0.070,0.049,-0.077,0.027,0.043,-0.125,-0.188,-0.091,-0.020,-0.035
-0.086,-0.016,0.070,0.051,-0.077,0.027,0.046,-0.125,-0.191,-0.088,-0.020,-0.035
-0.084,-0.014,0.070,0.049,-0.077,0.027,0.045,-0.124,-0.190,-0.085,-0.020,-0.034
-0.080,-0.010,0.070,0.045,-0.075,0.030,0.045,-0.120,-0.190,-0.085,-0.020,-0.030
-0.080,-0.010,0.070,0.045,-0.075,0.030,0.045,-0.120,-0.190,-0.085,-0.020,-0.030
-0.081,-0.011,0.070,0.046,-0.075,0.029,0.045,-0.120,-0.191,-0.082,-0.017,-0.030
-0.077,-0.006,0.071,0.042,-0.074,0.032,0.045,-0.120,-0.188,-0.079,-0.015,-0.030
-0.067,0.002,0.068,0.033,-0.068,0.035,0.045,-0.120,-0.185,-0.080,-0.014,-0.030
-0.060,0.005,0.065,0.027,-0.063,0.035,0.045,-0.120,-0.185,-0.080,-0.010,-0.030
-0.072,0.009,0.081,0.031,-0.077,0.045,0.049,-0.116,-0.181,-0.076,-0.010,-0.030
-0.074,0.013,0.087,0.030,-0.081,0.050,0.050,-0.115,-0.180,-0.074,-0.011,-0.027
-0.066,0.017,0.083,0.024,-0.075,0.050,0.050,-0.115,-0.178,-0.076,-0.008,-0.024
-0.066,0.021,0.087,0.022,-0.077,0.054,0.050,-0.115,-0.175,-0.074,-0.005,-0.025
-0.075,0.025,0.100,0.025,-0.088,0.062,0.050,-0.115,-0.175,-0.070,-0.005,-0.025
-0.076,0.030,0.105,0.023,-0.090,0.067,0.050,-0.115,-0.171,-0.070,-0.001,-0.025
-0.074,0.029,0.103,0.022,-0.089,0.066,0.050,-0.115,-0.170,-0.071,0.001,-0.026
-0.076,0.035,0.111,0.020,-0.094,0.073,0.049,-0.113,-0.168,-0.068,-0.001,-0.023
-0.073,0.047,0.120,0.013,-0.097,0.083,0.052,-0.109,-0.165,-0.065,0.001,-0.020
-0.065,0.050,0.115,0.007,-0.090,0.082,0.065,-0.105,-0.165,-0.065,0.005,-0.020
-0.065,0.050,0.115,0.007,-0.090,0.082,0.070,-0.101,-0.161,-0.065,0.005,-0.020
-0.062,0.050,0.112,0.006,-0.087,0.081,0.070,-0.097,-0.157,-0.062,0.008,-0.020
-0.060,0.050,0.110,0.005,-0.085,0.080,0.072,-0.093,-0.153,-0.059,0.010,-0.020
-0.059,0.050,0.109,0.005,-0.084,0.080,0.075,-0.090,-0.149,-0.060,0.011,-0.020
-0.055,0.050,0.105,0.002,-0.080,0.077,0.075,-0.090,-0.145,-0.060,0.015,-0.020
-0.055,0.050,0.105,0.002,-0.080,0.077,0.075,-0.086,-0.141,-0.056,0.015,-0.016
-0.052,0.050,0.102,0.001,-0.077,0.076,0.074,-0.085,-0.137,-0.055,0.018,-0.015
-0.050,0.050,0.100,0.000,-0.075,0.075,0.077,-0.085,-0.133,-0.055,0.020,-0.015
-0.049,0.050,0.099,-0.001,-0.074,0.075,0.080,-0.085,-0.130,-0.055,0.021,-0.015
-0.045,0.050,0.095,-0.003,-0.070,0.072,0.075,-0.085,-0.130,-0.055,0.025,-0.015
-0.047,0.049,0.095,-0.002,-0.071,0.071,0.071,-0.085,-0.126,-0.055,0.025,-0.015
-0.032,0.060,0.092,-0.014,-0.062,0.075,0.067,-0.082,-0.125,-0.052,0.028,-0.015
-0.025,0.065,0.090,-0.020,-0.058,0.077,0.063,-0.080,-0.123,-0.049,0.030,-0.015
-0.030,0.059,0.089,-0.015,-0.059,0.074,0.059,-0.080,-0.119,-0.050,0.031,-0.015
-0.025,0.060,0.085,-0.018,-0.055,0.072,0.055,-0.080,-0.120,-0.050,0.035,-0.015
-0.029,0.056,0.085,-0.014,-0.058,0.070,0.056,-0.081,-0.124,-0.050,0.036,-0.015
-0.027,0.055,0.082,-0.014,-0.056,0.069,0.047,-0.078,-0.126,-0.049,0.032,-0.015
-0.025,0.053,0.078,-0.014,-0.052,0.065,0.035,-0.089,-0.140,-0.055,0.030,-0.015
-0.024,0.050,0.074,-0.013,-0.049,0.062,0.028,-0.117,-0.166,-0.068,0.029,-0.014
-0.020,0.050,0.070,-0.015,-0.045,0.060,0.020,-0.135,-0.180,-0.075,0.025,-0.010
-0.020,0.046,0.066,-0.013,-0.043,0.056,0.012,-0.136,-0.185,-0.079,0.025,-0.010
-0.020,0.045,0.065,-0.013,-0.043,0.055,0.004,-0.135,-0.185,-0.080,0.026,-0.010
-0.020,0.043,0.064,-0.012,-0.042,0.053,-0.005,-0.135,-0.185,-0.080,0.023,-0.010
-0.019,0.040,0.059,-0.010,-0.039,0.049,-0.010,-0.135,-0.186,-0.080,0.020,-0.010
-0.015,0.040,0.055,-0.013,-0.035,0.047,-0.005,-0.135,-0.190,-0.080,0.020,-0.010
-0.015,0.036,0.051,-0.010,-0.034,0.043,-0.005,-0.135,-0.190,-0.080,0.016,-0.010
-0.012,0.034,0.047,-0.011,-0.030,0.040,-0.002,-0.135,-0.190,-0.081,0.014,-0.010
-0.009,0.036,0.044,-0.014,-0.027,0.040,0.001,-0.135,-0.188,-0.078,0.016,-0.010
-0.012,0.034,0.046,-0.012,-0.029,0.040,0.000,-0.135,-0.185,-0.075,0.014,-0.010
-0.020,0.030,0.050,-0.005,-0.035,0.040,0.000,-0.135,-0.185,-0.075,0.010,-0.010
-0.021,0.030,0.050,-0.005,-0.035,0.040,0.004,-0.135,-0.185,-0.075,0.010,-0.010
-0.019,0.031,0.049,-0.006,-0.034,0.040,0.005,-0.135,-0.185,-0.075,0.007,-0.010
-0.024,0.028,0.052,-0.002,-0.038,0.040,0.007,-0.135,-0.185,-0.075,0.004,-0.012
-0.031,0.025,0.055,0.003,-0.044,0.040,0.011,-0.135,-0.185,-0.075,0.005,-0.016
-0.030,0.025,0.055,0.002,-0.043,0.040,0.010,-0.135,-0.185,-0.075,0.005,-0.020
-0.030,0.025,0.055,0.002,-0.043,0.040,0.009,-0.135,-0.185,-0.079,0.001,-0.024
-0.029,0.026,0.055,0.001,-0.043,0.040,0.013,-0.135,-0.185,-0.080,-0.001,-0.029
-0.033,0.022,0.055,0.005,-0.045,0.038,0.015,-0.135,-0.185,-0.081,0.000,-0.030
-0.042,0.013,0.055,0.014,-0.049,0.034,0.016,-0.135,-0.185,-0.087,-0.001,-0.031
-0.045,0.010,0.055,0.017,-0.050,0.032,0.020,-0.135,-0.185,-0.095,-0.005,-0.035
-0.049,0.006,0.055,0.021,-0.052,0.030,0.020,-0.135,-0.193,-0.100,-0.010,-0.039
-0.053,0.002,0.055,0.025,-0.054,0.028,0.019,-0.135,-0.198,-0.100,-0.010,-0.043
-0.057,-0.002,0.055,0.029,-0.056,0.026,0.022,-0.135,-0.203,-0.102,-0.012,-0.047
-0.060,-0.005,0.055,0.032,-0.057,0.025,0.025,-0.135,-0.205,-0.105,-0.015,-0.051
-0.065,-0.010,0.055,0.037,-0.060,0.022,0.025,-0.135,-0.200,-0.105,-0.015,-0.050
-0.078,-0.023,0.055,0.050,-0.066,0.016,0.025,-0.135,-0.200,-0.118,-0.019,-0.046
-0.078,-0.023,0.055,0.050,-0.066,0.016,0.025,-0.136,-0.200,-0.118,-0.024,-0.045
-0.074,-0.019,0.055,0.046,-0.065,0.017,0.025,-0.133,-0.200,-0.114,-0.025,-0.045
-0.075,-0.020,0.055,0.047,-0.065,0.017,0.025,-0.130,-0.200,-0.115,-0.026,-0.045
-0.075,-0.020,0.055,0.047,-0.065,0.017,0.025,-0.130,-0.200,-0.115,-0.030,-0.045
-0.075,-0.020,0.055,0.047,-0.065,0.017,0.025,-0.130,-0.200,-0.115,-0.030,-0.045
-0.075,-0.020,0.055,0.047,-0.065,0.017,0.025,-0.130,-0.203,-0.115,-0.032,-0.045
-0.075,-0.020,0.055,0.047,-0.065,0.017,0.025,-0.130,-0.207,-0.115,-0.038,-0.045
-0.075,-0.020,0.055,0.047,-0.065,0.017,0.025,-0.130,-0.211,-0.115,-0.039,-0.045
-0.075,-0.020,0.055,0.047,-0.065,0.017,0.025,-0.130,-0.215,-0.115,-0.035,-0.045
-0.075,-0.020,0.055,0.047,-0.065,0.017,0.025,-0.130,-0.215,-0.115,-0.035,-0.045
-0.073,-0.020,0.053,0.046,-0.063,0.016,0.025,-0.130,-0.215,-0.115,-0.035,-0.045
-0.081,-0.020,0.061,0.050,-0.071,0.020,0.025,-0.130,-0.215,-0.115,-0.035,-0.045
-0.090,-0.020,0.070,0.055,-0.080,0.025,0.024,-0.130,-0.215,-0.115,-0.035,-0.045
-0.085,-0.020,0.065,0.052,-0.075,0.022,0.025,-0.130,-0.215,-0.115,-0.035,-0.045
-0.085,-0.020,0.065,0.052,-0.075,0.022,0.037,-0.130,-0.215,-0.115,-0.035,-0.045
-0.085,-0.020,0.065,0.052,-0.075,0.022,0.044,-0.130,-0.215,-0.115,-0.035,-0.045
-0.084,-0.019,0.065,0.051,-0.075,0.022,0.045,-0.130,-0.215,-0.115,-0.035,-0.045
-0.086,-0.021,0.065,0.053,-0.075,0.022,0.045,-0.130,-0.214,-0.115,-0.035,-0.045
-0.090,-0.025,0.065,0.057,-0.077,0.020,0.045,-0.130,-0.215,-0.115,-0.035,-0.045
-0.089,-0.024,0.065,0.056,-0.076,0.021,0.045,-0.130,-0.228,-0.115,-0.035,-0.045
-0.100,-0.035,0.065,0.067,-0.082,0.015,0.045,-0.130,-0.228,-0.115,-0.035,-0.045
-0.105,-0.040,0.065,0.072,-0.085,0.012,0.045,-0.130,-0.224,-0.115,-0.035,-0.045
-0.099,-0.034,0.065,0.066,-0.082,0.015,0.045,-0.130,-0.225,-0.115,-0.035,-0.045
-0.100,-0.035,0.065,0.067,-0.082,0.015,0.045,-0.130,-0.225,-0.115,-0.035,-0.045
-0.100,-0.035,0.065,0.067,-0.082,0.015,0.049,-0.130,-0.225,-0.115,-0.035,-0.045
-0.100,-0.035,0.066,0.067,-0.083,0.015,0.050,-0.130,-0.226,-0.115,-0.035,-0.046
-0.098,-0.035,0.063,0.066,-0.080,0.014,0.050,-0.130,-0.223,-0.115,-0.035,-0.043
-0.095,-0.035,0.060,0.065,-0.077,0.012,0.050,-0.130,-0.220,-0.114,-0.035,-0.040
-0.095,-0.035,0.060,0.065,-0.077,0.012,0.050,-0.130,-0.220,-0.110,-0.035,-0.040
-0.095,-0.035,0.060,0.065,-0.077,0.012,0.050,-0.126,-0.220,-0.110,-0.035,-0.040
-0.095,-0.035,0.060,0.065,-0.077,0.012,0.050,-0.125,-0.220,-0.110,-0.035,-0.037
-0.095,-0.035,0.060,0.065,-0.077,0.012,0.050,-0.125,-0.220,-0.110,-0.035,-0.035
-0.095,-0.035,0.060,0.065,-0.077,0.012,0.050,-0.125,-0.220,-0.110,-0.035,-0.035
-0.095,-0.035,0.060,0.065,-0.077,0.012,0.050,-0.125,-0.220,-0.110,-0.035,-0.035
-0.095,-0.035,0.060,0.065,-0.077,0.012,0.050,-0.121,-0.216,-0.110,-0.035,-0.035
-0.095,-0.035,0.060,0.065,-0.077,0.012,0.050,-0.120,-0.215,-0.111,-0.032,-0.032
-0.095,-0.035,0.060,0.065,-0.077,0.012,0.050,-0.120,-0.215,-0.108,-0.029,-0.029
-0.095,-0.035,0.060,0.065,-0.077,0.012,0.050,-0.120,-0.215,-0.105,-0.030,-0.030
-0.095,-0.035,0.060,0.065,-0.077,0.012,0.050,-0.120,-0.215,-0.105,-0.030,-0.030
-0.095,-0.035,0.060,0.065,-0.077,0.012,0.050,-0.120,-0.215,-0.105,-0.026,-0.026
-0.095,-0.035,0.060,0.065,-0.077,0.012,0.050,-0.117,-0.212,-0.105,-0.024,-0.025
-0.095,-0.035,0.060,0.065,-0.077,0.012,0.050,-0.114,-0.209,-0.105,-0.026,-0.025
-0.096,-0.036,0.060,0.066,-0.077,0.012,0.050,-0.115,-0.210,-0.105,-0.024,-0.025
-0.095,-0.035,0.060,0.065,-0.077,0.012,0.050,-0.115,-0.210,-0.105,-0.020,-0.025
-0.082,-0.023,0.059,0.053,-0.071,0.018,0.051,-0.115,-0.210,-0.106,-0.020,-0.021
-0.079,-0.014,0.065,0.047,-0.072,0.026,0.041,-0.113,-0.210,-0.100,-0.020,-0.020
-0.079,-0.004,0.075,0.041,-0.077,0.035,0.031,-0.121,-0.211,-0.091,-0.022,-0.020
-0.083,0.007,0.090,0.037,-0.087,0.049,0.022,-0.140,-0.208,-0.083,-0.017,-0.021
-0.095,0.015,0.110,0.040,-0.103,0.062,0.010,-0.155,-0.195,-0.075,0.000,-0.020
-0.088,0.026,0.114,0.031,-0.101,0.070,0.004,-0.166,-0.183,-0.070,0.011,0.003
-0.076,0.046,0.122,0.015,-0.099,0.084,-0.024,-0.183,-0.171,-0.039,0.036,0.028
-0.063,0.077,0.140,-0.007,-0.101,0.108,-0.064,-0.176,-0.160,-0.005,0.076,0.056
-0.037,0.114,0.151,-0.039,-0.094,0.132,-0.089,-0.141,-0.154,0.040,0.131,0.105
0.000,0.145,0.145,-0.073,-0.073,0.145,-0.100,-0.115,-0.150,0.110,0.195,0.165
0.027,0.169,0.142,-0.098,-0.058,0.155,-0.125,-0.135,-0.150,0.151,0.233,0.195
0.062,0.194,0.132,-0.128,-0.035,0.163,-0.175,-0.261,-0.148,0.194,0.296,0.253
0.080,0.229,0.149,-0.155,-0.035,0.189,-0.235,-0.472,-0.140,0.247,0.372,0.325
0.109,0.270,0.161,-0.190,-0.026,0.215,-0.295,-0.700,-0.153,0.305,0.442,0.393
0.190,0.310,0.120,-0.250,0.035,0.215,-0.370,-0.880,-0.180,0.375,0.525,0.480
0.264,0.355,0.091,-0.310,0.086,0.223,-0.488,-0.987,-0.139,0.474,0.640,0.588
0.363,0.388,0.024,-0.375,0.169,0.206,-0.612,-1.085,-0.090,0.579,0.755,0.695
0.507,0.429,-0.078,-0.468,0.292,0.176,-0.744,-1.166,-0.050,0.713,0.899,0.828
0.661,0.491,-0.170,-0.576,0.415,0.160,-0.903,-1.252,-0.010,0.866,1.073,0.991
0.790,0.565,-0.225,-0.677,0.507,0.170,-1.070,-1.380,0.025,0.995,1.235,1.145
0.910,0.656,-0.254,-0.783,0.582,0.201,-1.197,-1.465,0.058,1.110,1.379,1.283
1.024,0.741,-0.283,-0.883,0.653,0.229,-1.301,-1.445,0.118,1.195,1.483,1.395
1.102,0.733,-0.370,-0.917,0.735,0.181,-1.314,-1.391,0.205,1.197,1.479,1.395
1.117,0.606,-0.511,-0.861,0.814,0.048,-1.251,-1.348,0.252,1.088,1.340,1.256
1.095,0.460,-0.635,-0.777,0.865,-0.087,-1.210,-1.305,0.225,0.930,1.150,1.080
1.104,0.382,-0.722,-0.742,0.913,-0.169,-1.176,-1.271,0.210,0.824,1.025,0.971
1.094,0.261,-0.832,-0.677,0.963,-0.285,-1.153,-1.144,0.178,0.678,0.851,0.812
1.066,0.114,-0.952,-0.590,1.009,-0.419,-1.088,-1.004,0.148,0.491,0.644,0.623
1.009,-0.027,-1.036,-0.491,1.023,-0.532,-0.977,-0.923,0.102,0.313,0.462,0.462
0.890,-0.170,-1.060,-0.360,0.975,-0.615,-0.865,-0.850,0.005,0.145,0.290,0.310
0.751,-0.270,-1.021,-0.240,0.886,-0.646,-0.746,-0.759,-0.096,-0.043,0.105,0.141
0.641,-0.342,-0.983,-0.149,0.812,-0.662,-0.624,-0.707,-0.230,-0.224,-0.065,-0.007
0.518,-0.406,-0.924,-0.056,0.721,-0.665,-0.509,-0.681,-0.407,-0.391,-0.205,-0.126
0.413,-0.427,-0.840,0.007,0.627,-0.633,-0.414,-0.635,-0.514,-0.468,-0.270,-0.185
0.370,-0.380,-0.750,0.005,0.560,-0.565,-0.340,-0.560,-0.475,-0.420,-0.245,-0.165
0.274,-0.340,-0.614,0.033,0.444,-0.477,-0.271,-0.477,-0.450,-0.387,-0.229,-0.152
0.197,-0.298,-0.495,0.051,0.346,-0.396,-0.215,-0.421,-0.422,-0.347,-0.203,-0.141
0.141,-0.254,-0.395,0.056,0.269,-0.324,-0.164,-0.377,-0.389,-0.294,-0.168,-0.129
0.079,-0.216,-0.296,0.069,0.188,-0.256,-0.121,-0.328,-0.356,-0.251,-0.138,-0.116
0.030,-0.185,-0.215,0.078,0.123,-0.200,-0.095,-0.285,-0.315,-0.220,-0.115,-0.100
0.021,-0.156,-0.178,0.067,0.100,-0.167,-0.071,-0.241,-0.275,-0.191,-0.094,-0.088
0.007,-0.135,-0.142,0.064,0.075,-0.138,-0.047,-0.195,-0.235,-0.172,-0.083,-0.073
-0.001,-0.114,-0.113,0.058,0.056,-0.114,-0.022,-0.145,-0.194,-0.157,-0.076,-0.058
-0.002,-0.097,-0.095,0.049,0.047,-0.096,-0.001,-0.101,-0.166,-0.141,-0.069,-0.048
-0.015,-0.090,-0.075,0.053,0.030,-0.082,0.010,-0.070,-0.160,-0.125,-0.065,-0.045
-0.019,-0.082,-0.063,0.050,0.022,-0.072,0.018,-0.041,-0.152,-0.112,-0.057,-0.045
-0.026,-0.077,-0.051,0.052,0.013,-0.064,0.029,-0.024,-0.147,-0.106,-0.048,-0.045
-0.033,-0.072,-0.039,0.053,0.004,-0.055,0.039,-0.016,-0.142,-0.105,-0.043,-0.045
-0.036,-0.063,-0.027,0.049,-0.004,-0.044,0.048,-0.007,-0.133,-0.105,-0.039,-0.045
-0.040,-0.055,-0.015,0.048,-0.012,-0.035,0.060,0.005,-0.125,-0.105,-0.035,-0.045
-0.045,-0.051,-0.006,0.048,-0.019,-0.028,0.068,0.013,-0.121,-0.105,-0.035,-0.045
-0.044,-0.047,-0.002,0.045,-0.021,-0.024,0.074,0.024,-0.117,-0.105,-0.035,-0.045
-0.049,-0.045,0.004,0.047,-0.026,-0.020,0.075,0.035,-0.115,-0.105,-0.035,-0.045
-0.055,-0.044,0.011,0.050,-0.033,-0.016,0.075,0.041,-0.114,-0.105,-0.035,-0.045
-0.055,-0.040,0.015,0.047,-0.035,-0.012,0.075,0.045,-0.110,-0.105,-0.035,-0.045
-0.063,-0.040,0.023,0.051,-0.043,-0.008,0.075,0.049,-0.110,-0.105,-0.035,-0.045
-0.065,-0.037,0.028,0.051,-0.046,-0.004,0.075,0.054,-0.107,-0.105,-0.035,-0.046
-0.067,-0.034,0.033,0.050,-0.049,-0.001,0.075,0.054,-0.105,-0.105,-0.035,-0.043
-0.070,-0.035,0.035,0.052,-0.052,0.000,0.076,0.057,-0.104,-0.105,-0.035,-0.040
-0.070,-0.035,0.035,0.052,-0.052,0.000,0.080,0.070,-0.100,-0.105,-0.035,-0.040
-0.079,-0.031,0.048,0.055,-0.063,0.009,0.084,0.079,-0.100,-0.101,-0.035,-0.040
-0.078,-0.030,0.048,0.054,-0.063,0.009,0.088,0.084,-0.097,-0.100,-0.035,-0.040
-0.072,-0.028,0.044,0.050,-0.058,0.008,0.090,0.085,-0.095,-0.100,-0.035,-0.040
-0.070,-0.025,0.045,0.047,-0.057,0.010,0.090,0.086,-0.094,-0.100,-0.035,-0.040
-0.070,-0.025,0.045,0.047,-0.057,0.010,0.090,0.090,-0.090,-0.100,-0.035,-0.040
-0.066,-0.021,0.045,0.043,-0.055,0.012,0.090,0.090,-0.090,-0.100,-0.035,-0.040
-0.065,-0.019,0.046,0.042,-0.055,0.012,0.090,0.093,-0.087,-0.100,-0.035,-0.040
-0.064,-0.021,0.043,0.042,-0.053,0.011,0.090,0.095,-0.085,-0.100,-0.035,-0.040
-0.059,-0.019,0.040,0.039,-0.049,0.010,0.090,0.096,-0.084,-0.100,-0.035,-0.040
-0.055,-0.015,0.040,0.035,-0.047,0.012,0.090,0.100,-0.080,-0.100,-0.035,-0.040
-0.055,-0.015,0.040,0.035,-0.047,0.012,0.090,0.100,-0.080,-0.100,-0.035,-0.040
-0.055,-0.015,0.040,0.035,-0.047,0.012,0.090,0.103,-0.077,-0.100,-0.035,-0.040
-0.055,-0.015,0.040,0.035,-0.047,0.012,0.090,0.105,-0.075,-0.100,-0.035,-0.040
-0.055,-0.014,0.041,0.034,-0.047,0.013,0.090,0.106,-0.074,-0.099,-0.035,-0.040
-0.055,-0.010,0.045,0.032,-0.050,0.017,0.090,0.110,-0.070,-0.095,-0.035,-0.040
-0.058,-0.010,0.049,0.034,-0.053,0.019,0.090,0.109,-0.070,-0.095,-0.035,-0.040
-0.066,-0.010,0.056,0.038,-0.061,0.023,0.090,0.116,-0.067,-0.096,-0.032,-0.040
-0.071,-0.010,0.061,0.041,-0.066,0.025,0.090,0.121,-0.065,-0.093,-0.029,-0.040
-0.069,-0.009,0.060,0.039,-0.064,0.025,0.090,0.119,-0.064,-0.090,-0.030,-0.040
-0.065,-0.005,0.060,0.035,-0.062,0.027,0.090,0.120,-0.060,-0.090,-0.030,-0.040
-0.065,-0.005,0.060,0.035,-0.062,0.027,0.090,0.132,-0.060,-0.090,-0.030,-0.040
-0.065,-0.005,0.060,0.035,-0.062,0.027,0.090,0.139,-0.058,-0.087,-0.027,-0.040
-0.065,-0.005,0.060,0.035,-0.062,0.027,0.090,0.140,-0.052,-0.084,-0.024,-0.040
-0.065,-0.005,0.060,0.035,-0.062,0.027,0.091,0.141,-0.050,-0.085,-0.025,-0.040
-0.065,-0.005,0.060,0.035,-0.062,0.027,0.095,0.145,-0.050,-0.085,-0.025,-0.040
-0.061,-0.001,0.060,0.031,-0.060,0.030,0.095,0.145,-0.046,-0.081,-0.025,-0.040
-0.060,0.000,0.060,0.030,-0.060,0.030,0.094,0.145,-0.041,-0.079,-0.022,-0.040
-0.060,0.000,0.060,0.030,-0.060,0.030,0.097,0.144,-0.040,-0.081,-0.019,-0.040
-0.060,0.000,0.060,0.030,-0.060,0.030,0.100,0.146,-0.039,-0.079,-0.020,-0.040
-0.060,0.000,0.060,0.030,-0.060,0.030,0.100,0.155,-0.030,-0.075,-0.020,-0.040
-0.056,0.004,0.060,0.026,-0.058,0.032,0.100,0.160,-0.026,-0.075,-0.020,-0.040
-0.055,0.005,0.060,0.025,-0.058,0.032,0.103,0.160,-0.022,-0.076,-0.021,-0.040
-0.055,0.005,0.060,0.025,-0.058,0.032,0.106,0.162,-0.018,-0.073,-0.018,-0.040
-0.055,0.005,0.060,0.025,-0.058,0.032,0.105,0.166,-0.014,-0.070,-0.015,-0.040
-0.055,0.005,0.060,0.025,-0.058,0.032,0.105,0.170,-0.010,-0.070,-0.015,-0.040
-0.055,0.005,0.060,0.025,-0.058,0.032,0.105,0.175,-0.006,-0.070,-0.015,-0.040
-0.052,0.008,0.060,0.022,-0.056,0.034,0.105,0.174,-0.002,-0.067,-0.016,-0.040
-0.050,0.010,0.060,0.020,-0.055,0.035,0.105,0.180,0.002,-0.065,-0.013,-0.040
-0.049,0.011,0.060,0.019,-0.055,0.035,0.105,0.192,0.006,-0.065,-0.010,-0.039
-0.045,0.015,0.060,0.015,-0.053,0.037,0.105,0.195,0.010,-0.065,-0.010,-0.035
-0.045,0.015,0.060,0.015,-0.053,0.037,0.105,0.203,0.014,-0.065,-0.010,-0.035
-0.046,0.014,0.060,0.016,-0.053,0.037,0.105,0.208,0.018,-0.062,-0.010,-0.036
-0.043,0.017,0.060,0.013,-0.052,0.038,0.105,0.212,0.022,-0.060,-0.010,-0.033
-0.040,0.020,0.060,0.010,-0.050,0.040,0.105,0.215,0.026,-0.059,-0.009,-0.030
-0.040,0.020,0.060,0.010,-0.050,0.040,0.105,0.215,0.030,-0.055,-0.005,-0.030
-0.040,0.024,0.064,0.008,-0.053,0.044,0.105,0.227,0.038,-0.055,-0.005,-0.030
-0.040,0.026,0.065,0.007,-0.053,0.046,0.105,0.237,0.044,-0.056,-0.002,-0.027
-0.040,0.024,0.065,0.008,-0.053,0.045,0.105,0.242,0.045,-0.053,0.001,-0.024
-0.039,0.026,0.065,0.006,-0.053,0.045,0.106,0.246,0.046,-0.050,0.000,-0.025
-0.035,0.030,0.065,0.002,-0.050,0.047,0.110,0.250,0.055,-0.050,0.000,-0.025
-0.035,0.030,0.065,0.002,-0.050,0.047,0.110,0.258,0.063,-0.046,0.004,-0.021
-0.035,0.033,0.068,0.001,-0.052,0.050,0.109,0.266,0.072,-0.044,0.006,-0.019
-0.035,0.036,0.071,0.000,-0.053,0.053,0.112,0.274,0.077,-0.045,0.004,-0.021
-0.035,0.035,0.070,0.000,-0.053,0.052,0.115,0.282,0.082,-0.044,0.006,-0.019
-0.035,0.035,0.070,0.000,-0.053,0.052,0.115,0.290,0.090,-0.040,0.010,-0.015
-0.031,0.039,0.070,-0.004,-0.051,0.055,0.115,0.303,0.094,-0.036,0.010,-0.015
-0.029,0.041,0.070,-0.006,-0.050,0.055,0.118,0.307,0.103,-0.032,0.009,-0.016
-0.030,0.040,0.070,-0.005,-0.050,0.055,0.121,0.320,0.117,-0.028,0.012,-0.013
-0.029,0.041,0.070,-0.006,-0.050,0.055,0.120,0.337,0.127,-0.024,0.015,-0.010
-0.025,0.045,0.070,-0.010,-0.048,0.057,0.120,0.340,0.135,-0.020,0.015,-0.010
-0.021,0.049,0.070,-0.014,-0.045,0.060,0.124,0.351,0.143,-0.021,0.014,-0.011
-0.019,0.051,0.070,-0.016,-0.045,0.060,0.126,0.365,0.152,-0.014,0.018,-0.007
-0.021,0.049,0.070,-0.014,-0.045,0.060,0.125,0.374,0.157,-0.007,0.020,-0.005
-0.019,0.051,0.070,-0.016,-0.044,0.061,0.126,0.383,0.162,-0.004,0.021,-0.004
-0.010,0.060,0.070,-0.025,-0.040,0.065,0.130,0.400,0.175,0.000,0.025,0.000
-0.005,0.065,0.070,-0.030,-0.038,0.067,0.134,0.416,0.187,0.004,0.029,0.000
-0.008,0.062,0.070,-0.027,-0.039,0.066,0.139,0.432,0.198,0.008,0.033,0.003
-0.011,0.059,0.070,-0.024,-0.041,0.064,0.140,0.448,0.213,0.011,0.037,0.005
-0.008,0.062,0.070,-0.027,-0.039,0.066,0.141,0.464,0.229,0.018,0.041,0.006
0.000,0.070,0.070,-0.035,-0.035,0.070,0.145,0.480,0.240,0.030,0.045,0.010
0.004,0.074,0.070,-0.039,-0.033,0.072,0.149,0.493,0.248,0.034,0.050,0.010
0.008,0.078,0.070,-0.043,-0.031,0.074,0.153,0.500,0.255,0.037,0.049,0.013
0.012,0.083,0.070,-0.047,-0.029,0.076,0.157,0.514,0.267,0.043,0.053,0.015
0.016,0.085,0.069,-0.050,-0.027,0.077,0.161,0.535,0.284,0.052,0.062,0.016
0.015,0.085,0.070,-0.050,-0.028,0.077,0.165,0.555,0.300,0.060,0.065,0.020
0.010,0.093,0.083,-0.052,-0.037,0.087,0.165,0.575,0.316,0.063,0.069,0.020
0.015,0.101,0.086,-0.059,-0.036,0.094,0.168,0.596,0.335,0.075,0.073,0.023
0.023,0.108,0.085,-0.066,-0.031,0.096,0.170,0.611,0.354,0.080,0.077,0.024
0.025,0.110,0.085,-0.068,-0.030,0.097,0.171,0.624,0.368,0.082,0.081,0.027
0.025,0.110,0.085,-0.068,-0.030,0.097,0.175,0.645,0.380,0.095,0.085,0.040
0.029,0.114,0.085,-0.072,-0.028,0.099,0.179,0.661,0.396,0.103,0.089,0.045
0.033,0.118,0.085,-0.076,-0.026,0.101,0.184,0.680,0.412,0.112,0.093,0.045
0.038,0.122,0.084,-0.080,-0.023,0.103,0.185,0.699,0.428,0.116,0.097,0.047
0.039,0.126,0.087,-0.083,-0.024,0.107,0.186,0.714,0.444,0.123,0.102,0.050
0.040,0.135,0.095,-0.088,-0.028,0.115,0.190,0.730,0.460,0.140,0.110,0.050
0.060,0.152,0.091,-0.106,-0.016,0.121,0.189,0.754,0.480,0.144,0.118,0.053
0.070,0.160,0.090,-0.115,-0.010,0.125,0.196,0.778,0.499,0.153,0.129,0.061
0.071,0.160,0.088,-0.116,-0.008,0.124,0.203,0.803,0.524,0.165,0.140,0.070
0.077,0.161,0.084,-0.119,-0.004,0.122,0.205,0.824,0.550,0.172,0.146,0.076
0.080,0.165,0.085,-0.123,-0.003,0.125,0.205,0.835,0.565,0.180,0.150,0.080
0.078,0.164,0.085,-0.122,-0.004,0.125,0.205,0.856,0.586,0.193,0.162,0.092
0.092,0.174,0.082,-0.133,0.005,0.128,0.206,0.869,0.599,0.198,0.169,0.100
0.102,0.182,0.079,-0.142,0.012,0.131,0.203,0.886,0.614,0.204,0.171,0.099
0.099,0.179,0.080,-0.139,0.009,0.130,0.200,0.911,0.635,0.219,0.178,0.102
0.100,0.180,0.080,-0.140,0.010,0.130,0.200,0.930,0.655,0.235,0.190,0.115
0.112,0.188,0.076,-0.150,0.018,0.131,0.196,0.946,0.674,0.239,0.198,0.119
0.121,0.196,0.074,-0.159,0.023,0.134,0.195,0.965,0.699,0.245,0.204,0.124
0.131,0.206,0.076,-0.169,0.027,0.141,0.193,0.984,0.718,0.254,0.206,0.122
0.143,0.217,0.074,-0.180,0.034,0.146,0.190,0.998,0.736,0.262,0.213,0.123
0.150,0.220,0.070,-0.185,0.040,0.145,0.190,1.010,0.760,0.270,0.230,0.140
0.150,0.220,0.070,-0.185,0.040,0.145,0.186,1.018,0.772,0.274,0.235,0.145
0.149,0.220,0.071,-0.184,0.039,0.146,0.185,1.025,0.789,0.283,0.234,0.147
0.154,0.220,0.066,-0.187,0.044,0.143,0.183,1.038,0.809,0.297,0.238,0.156
0.162,0.220,0.058,-0.191,0.052,0.139,0.180,1.053,0.823,0.307,0.247,0.167
0.165,0.220,0.055,-0.193,0.055,0.137,0.180,1.060,0.835,0.310,0.250,0.170
0.169,0.220,0.051,-0.194,0.059,0.135,0.176,1.069,0.850,0.314,0.253,0.170
0.175,0.222,0.047,-0.199,0.064,0.135,0.175,1.065,0.869,0.318,0.261,0.174
0.187,0.230,0.043,-0.209,0.071,0.136,0.173,1.057,0.877,0.321,0.266,0.174
0.196,0.235,0.039,-0.216,0.078,0.137,0.170,1.054,0.883,0.328,0.273,0.178
0.195,0.230,0.035,-0.213,0.080,0.132,0.170,1.050,0.895,0.340,0.285,0.195
0.199,0.226,0.027,-0.213,0.085,0.127,0.162,1.042,0.892,0.337,0.281,0.200
0.204,0.222,0.018,-0.214,0.093,0.120,0.154,1.036,0.886,0.332,0.279,0.200
0.205,0.218,0.013,-0.211,0.096,0.115,0.146,1.034,0.885,0.328,0.280,0.200
0.206,0.215,0.008,-0.211,0.098,0.111,0.138,1.027,0.884,0.324,0.280,0.200
0.215,0.215,0.000,-0.215,0.107,0.107,0.130,1.015,0.880,0.320,0.280,0.200
0.220,0.211,-0.008,-0.215,0.114,0.101,0.122,1.004,0.875,0.320,0.280,0.196
0.220,0.207,-0.014,-0.213,0.117,0.097,0.117,0.980,0.876,0.317,0.277,0.192
0.219,0.203,-0.016,-0.211,0.117,0.094,0.112,0.953,0.868,0.313,0.274,0.188
0.222,0.199,-0.023,-0.210,0.122,0.088,0.103,0.928,0.851,0.309,0.275,0.184
0.230,0.195,-0.035,-0.212,0.132,0.080,0.095,0.895,0.835,0.305,0.275,0.180
0.227,0.196,-0.032,-0.211,0.129,0.081,0.087,0.868,0.807,0.300,0.275,0.180
0.216,0.190,-0.027,-0.203,0.121,0.081,0.079,0.833,0.782,0.302,0.276,0.177
0.203,0.181,-0.023,-0.192,0.113,0.079,0.071,0.799,0.755,0.293,0.270,0.173
0.193,0.173,-0.020,-0.183,0.106,0.076,0.064,0.766,0.722,0.276,0.257,0.169
0.185,0.165,-0.020,-0.175,0.102,0.072,0.060,0.730,0.690,0.265,0.250,0.165
0.173,0.157,-0.016,-0.165,0.094,0.070,0.056,0.694,0.658,0.249,0.242,0.160
0.160,0.148,-0.011,-0.154,0.085,0.068,0.052,0.655,0.626,0.236,0.234,0.161
0.153,0.143,-0.010,-0.148,0.081,0.066,0.048,0.617,0.592,0.223,0.226,0.155
0.148,0.138,-0.009,-0.143,0.079,0.064,0.045,0.580,0.556,0.206,0.218,0.142
0.135,0.130,-0.005,-0.132,0.070,0.062,0.045,0.535,0.520,0.190,0.210,0.135
0.126,0.126,-0.001,-0.126,0.063,0.062,0.041,0.491,0.480,0.174,0.194,0.128
0.122,0.122,0.000,-0.122,0.061,0.061,0.036,0.449,0.440,0.158,0.181,0.116
0.117,0.118,0.001,-0.117,0.057,0.060,0.035,0.411,0.400,0.142,0.167,0.105
0.108,0.114,0.006,-0.111,0.050,0.060,0.034,0.377,0.360,0.126,0.152,0.098
0.100,0.110,0.010,-0.105,0.045,0.060,0.030,0.345,0.325,0.110,0.140,0.090
0.092,0.106,0.014,-0.100,0.039,0.060,0.025,0.317,0.297,0.094,0.128,0.078
0.082,0.099,0.018,-0.091,0.031,0.058,0.025,0.286,0.269,0.081,0.118,0.068
0.068,0.091,0.023,-0.080,0.022,0.056,0.023,0.256,0.241,0.069,0.112,0.062
0.058,0.083,0.025,-0.071,0.016,0.054,0.020,0.227,0.213,0.057,0.102,0.052
0.050,0.075,0.025,-0.063,0.012,0.050,0.020,0.195,0.185,0.045,0.090,0.040
0.034,0.067,0.033,-0.051,0.000,0.050,0.020,0.166,0.157,0.037,0.082,0.032
0.023,0.059,0.036,-0.042,-0.007,0.047,0.020,0.144,0.131,0.027,0.074,0.024
0.016,0.051,0.035,-0.034,-0.010,0.043,0.020,0.127,0.111,0.013,0.066,0.016
0.008,0.043,0.035,-0.026,-0.014,0.039,0.020,0.111,0.096,0.003,0.058,0.009
0.005,0.040,0.035,-0.023,-0.015,0.037,0.020,0.095,0.080,-0.005,0.050,0.005
0.005,0.040,0.035,-0.023,-0.015,0.037,0.020,0.079,0.064,-0.017,0.046,0.001
0.002,0.037,0.035,-0.020,-0.017,0.036,0.017,0.063,0.051,-0.027,0.040,-0.003
0.000,0.035,0.035,-0.018,-0.018,0.035,0.014,0.049,0.038,-0.033,0.030,-0.007
-0.002,0.034,0.036,-0.017,-0.019,0.035,0.015,0.037,0.021,-0.043,0.024,-0.011
-0.010,0.030,0.040,-0.010,-0.025,0.035,0.015,0.025,0.005,-0.055,0.020,-0.015
-0.013,0.030,0.043,-0.009,-0.028,0.036,0.015,0.017,-0.011,-0.063,0.012,-0.018
-0.028,0.027,0.055,0.000,-0.042,0.040,0.015,0.010,-0.027,-0.071,0.007,-0.029
-0.035,0.025,0.060,0.005,-0.048,0.042,0.015,-0.001,-0.042,-0.077,0.003,-0.038
-0.030,0.024,0.054,0.002,-0.043,0.039,0.015,-0.012,-0.052,-0.081,-0.001,-0.040
-0.035,0.020,0.055,0.007,-0.045,0.037,0.015,-0.020,-0.055,-0.085,-0.005,-0.040
-0.035,0.020,0.055,0.007,-0.045,0.037,0.011,-0.028,-0.059,-0.089,-0.009,-0.040
-0.038,0.017,0.055,0.010,-0.047,0.036,0.010,-0.034,-0.063,-0.093,-0.013,-0.040
-0.041,0.014,0.055,0.013,-0.049,0.035,0.010,-0.036,-0.067,-0.097,-0.017,-0.042
-0.039,0.015,0.054,0.011,-0.047,0.035,0.010,-0.043,-0.071,-0.101,-0.020,-0.046
-0.035,0.015,0.050,0.010,-0.043,0.032,0.010,-0.055,-0.075,-0.105,-0.020,-0.050
-0.039,0.011,0.050,0.014,-0.044,0.030,0.010,-0.060,-0.079,-0.109,-0.024,-0.054
-0.041,0.009,0.050,0.016,-0.045,0.030,0.010,-0.060,-0.086,-0.110,-0.025,-0.055
-0.039,0.011,0.050,0.014,-0.045,0.030,0.010,-0.060,-0.093,-0.112,-0.027,-0.055
-0.041,0.009,0.050,0.016,-0.045,0.029,0.010,-0.061,-0.095,-0.115,-0.031,-0.055
-0.045,0.005,0.050,0.020,-0.048,0.027,0.010,-0.065,-0.095,-0.115,-0.030,-0.055
-0.046,0.005,0.050,0.021,-0.049,0.027,0.014,-0.065,-0.095,-0.119,-0.030,-0.063
-0.041,0.006,0.047,0.018,-0.045,0.026,0.015,-0.065,-0.095,-0.120,-0.033,-0.069
-0.041,0.003,0.044,0.019,-0.043,0.024,0.015,-0.063,-0.095,-0.122,-0.036,-0.070
-0.046,0.000,0.045,0.023,-0.045,0.022,0.015,-0.060,-0.095,-0.125,-0.035,-0.070
-0.045,0.000,0.045,0.022,-0.045,0.022,0.015,-0.060,-0.095,-0.125,-0.035,-0.070
-0.044,0.000,0.045,0.021,-0.045,0.022,0.015,-0.060,-0.099,-0.129,-0.039,-0.070
-0.049,-0.003,0.046,0.025,-0.047,0.021,0.015,-0.060,-0.100,-0.130,-0.040,-0.070
-0.049,-0.006,0.043,0.027,-0.045,0.019,0.015,-0.060,-0.102,-0.130,-0.042,-0.070
-0.044,-0.005,0.040,0.025,-0.041,0.017,0.016,-0.060,-0.105,-0.130,-0.045,-0.071
-0.045,-0.005,0.040,0.025,-0.042,0.017,0.020,-0.060,-0.105,-0.130,-0.045,-0.075
-0.049,-0.009,0.040,0.029,-0.045,0.015,0.020,-0.060,-0.105,-0.134,-0.049,-0.079
-0.050,-0.011,0.040,0.031,-0.045,0.015,0.020,-0.060,-0.105,-0.135,-0.050,-0.083
-0.050,-0.009,0.040,0.029,-0.045,0.015,0.020,-0.060,-0.105,-0.137,-0.050,-0.085
-0.051,-0.011,0.040,0.031,-0.045,0.014,0.020,-0.060,-0.105,-0.140,-0.050,-0.085
-0.055,-0.015,0.040,0.035,-0.047,0.012,0.020,-0.060,-0.105,-0.140,-0.050,-0.085
-0.059,-0.015,0.044,0.037,-0.051,0.014,0.020,-0.060,-0.105,-0.140,-0.050,-0.085
-0.060,-0.015,0.045,0.037,-0.052,0.015,0.019,-0.057,-0.105,-0.140,-0.050,-0.085
-0.060,-0.015,0.045,0.037,-0.052,0.015,0.022,-0.054,-0.105,-0.140,-0.050,-0.085
-0.060,-0.015,0.045,0.037,-0.052,0.015,0.025,-0.055,-0.105,-0.140,-0.050,-0.085
-0.060,-0.015,0.045,0.037,-0.052,0.015,0.025,-0.055,-0.105,-0.140,-0.050,-0.085
-0.060,-0.015,0.045,0.037,-0.052,0.015,0.025,-0.055,-0.105,-0.140,-0.050,-0.089
-0.060,-0.015,0.045,0.037,-0.052,0.015,0.025,-0.055,-0.105,-0.140,-0.049,-0.090
-0.060,-0.015,0.045,0.037,-0.052,0.015,0.025,-0.055,-0.105,-0.140,-0.052,-0.090
-0.060,-0.015,0.045,0.037,-0.052,0.015,0.025,-0.055,-0.105,-0.140,-0.055,-0.090
-0.060,-0.015,0.045,0.037,-0.052,0.015,0.025,-0.055,-0.105,-0.140,-0.055,-0.090
-0.060,-0.015,0.045,0.037,-0.052,0.015,0.029,-0.055,-0.105,-0.140,-0.055,-0.090
-0.060,-0.015,0.045,0.037,-0.052,0.015,0.030,-0.055,-0.105,-0.139,-0.055,-0.090
-0.060,-0.015,0.045,0.037,-0.052,0.015,0.030,-0.055,-0.105,-0.142,-0.055,-0.090
-0.060,-0.015,0.045,0.037,-0.052,0.015,0.030,-0.055,-0.105,-0.145,-0.055,-0.089
-0.060,-0.015,0.045,0.037,-0.052,0.015,0.030,-0.055,-0.105,-0.145,-0.055,-0.085
-0.060,-0.015,0.045,0.037,-0.052,0.015,0.030,-0.059,-0.105,-0.154,-0.054,-0.085
-0.060,-0.015,0.045,0.037,-0.052,0.015,0.030,-0.060,-0.105,-0.153,-0.065,-0.085
-0.060,-0.015,0.045,0.037,-0.052,0.015,0.030,-0.060,-0.105,-0.149,-0.070,-0.085
-0.060,-0.015,0.045,0.037,-0.052,0.015,0.030,-0.060,-0.105,-0.150,-0.064,-0.085
-0.060,-0.015,0.045,0.037,-0.052,0.015,0.030,-0.060,-0.105,-0.150,-0.065,-0.085
-0.060,-0.015,0.045,0.037,-0.052,0.015,0.030,-0.060,-0.105,-0.150,-0.065,-0.085
-0.059,-0.015,0.044,0.037,-0.051,0.015,0.030,-0.060,-0.105,-0.150,-0.065,-0.085
-0.062,-0.015,0.047,0.038,-0.054,0.016,0.030,-0.060,-0.105,-0.150,-0.065,-0.085
-0.065,-0.015,0.050,0.040,-0.057,0.017,0.030,-0.060,-0.105,-0.150,-0.065,-0.085
-0.065,-0.015,0.050,0.040,-0.057,0.017,0.030,-0.060,-0.105,-0.150,-0.065,-0.085
-0.065,-0.015,0.050,0.040,-0.057,0.017,0.030,-0.060,-0.105,-0.150,-0.065,-0.085
-0.068,-0.015,0.053,0.041,-0.060,0.019,0.030,-0.060,-0.105,-0.150,-0.062,-0.085
-0.071,-0.015,0.056,0.042,-0.063,0.020,0.030,-0.060,-0.105,-0.150,-0.059,-0.085
-0.070,-0.015,0.055,0.042,-0.062,0.020,0.030,-0.061,-0.105,-0.150,-0.060,-0.085
-0.070,-0.015,0.055,0.042,-0.062,0.020,0.030,-0.065,-0.105,-0.150,-0.060,-0.085
-0.070,-0.015,0.055,0.042,-0.062,0.020,0.030,-0.065,-0.105,-0.146,-0.060,-0.085
-0.067,-0.012,0.055,0.039,-0.061,0.021,0.030,-0.065,-0.105,-0.145,-0.060,-0.085
-0.065,-0.009,0.055,0.037,-0.060,0.022,0.030,-0.065,-0.105,-0.145,-0.060,-0.085
-0.064,-0.010,0.054,0.037,-0.059,0.022,0.030,-0.065,-0.105,-0.145,-0.060,-0.085
-0.065,-0.010,0.055,0.037,-0.060,0.022,0.030,-0.065,-0.105,-0.145,-0.060,-0.085
-0.078,-0.010,0.068,0.044,-0.073,0.029,0.030,-0.065,-0.105,-0.145,-0.056,-0.085
-0.079,-0.011,0.068,0.044,-0.074,0.029,0.031,-0.065,-0.105,-0.145,-0.055,-0.085
-0.072,-0.008,0.064,0.040,-0.068,0.028,0.028,-0.065,-0.105,-0.145,-0.055,-0.085
-0.070,-0.005,0.065,0.037,-0.067,0.030,0.025,-0.065,-0.105,-0.145,-0.055,-0.085
-0.070,-0.005,0.065,0.037,-0.067,0.030,0.025,-0.065,-0.105,-0.145,-0.055,-0.085
-0.070,-0.005,0.065,0.037,-0.067,0.030,0.025,-0.065,-0.105,-0.145,-0.055,-0.085
-0.071,-0.005,0.066,0.037,-0.068,0.030,0.025,-0.064,-0.105,-0.145,-0.055,-0.085
-0.068,-0.005,0.063,0.036,-0.065,0.029,0.025,-0.067,-0.105,-0.145,-0.055,-0.085
-0.065,-0.005,0.060,0.035,-0.062,0.027,0.025,-0.070,-0.105,-0.146,-0.055,-0.085
-0.065,-0.005,0.060,0.035,-0.062,0.027,0.025,-0.070,-0.105,-0.150,-0.055,-0.085
-0.061,-0.001,0.060,0.031,-0.060,0.030,0.025,-0.070,-0.105,-0.150,-0.059,-0.085
-0.060,0.000,0.060,0.030,-0.060,0.030,0.025,-0.073,-0.104,-0.150,-0.060,-0.085
-0.060,0.000,0.060,0.030,-0.060,0.030,0.025,-0.076,-0.107,-0.150,-0.060,-0.085
