I,II,III,aVR,aVL,aVF,V1,V2,V3,V4,V5,V6
-0.085,0.040,0.125,0.022,-0.105,0.082,0.115,0.260,0.125,0.020,-0.040,-0.120
-0.085,0.040,0.125,0.022,-0.105,0.082,0.115,0.260,0.125,0.020,-0.040,-0.120
-0.085,0.040,0.125,0.022,-0.105,0.082,0.115,0.260,0.125,0.020,-0.040,-0.120
-0.085,0.041,0.126,0.021,-0.105,0.083,0.115,0.261,0.125,0.020,-0.040,-0.120
-0.085,0.038,0.123,0.023,-0.104,0.080,0.114,0.259,0.125,0.020,-0.040,-0.120
-0.085,0.040,0.125,0.022,-0.105,0.082,0.115,0.260,0.125,0.020,-0.040,-0.120
-0.081,0.077,0.158,0.001,-0.120,0.117,0.131,0.280,0.132,0.024,-0.036,-0.116
-0.080,0.092,0.172,-0.006,-0.126,0.132,0.143,0.293,0.142,0.029,-0.032,-0.115
-0.080,0.089,0.169,-0.004,-0.125,0.129,0.145,0.295,0.146,0.030,-0.028,-0.114
-0.080,0.090,0.170,-0.005,-0.125,0.130,0.146,0.304,0.154,0.039,-0.024,-0.109
-0.080,0.090,0.170,-0.005,-0.125,0.130,0.155,0.325,0.175,0.055,-0.020,-0.105
-0.080,0.090,0.170,-0.005,-0.125,0.130,0.160,0.327,0.181,0.052,-0.020,-0.101
-0.079,0.091,0.170,-0.006,-0.125,0.130,0.160,0.322,0.178,0.048,-0.017,-0.100
-0.066,0.103,0.170,-0.018,-0.118,0.136,0.160,0.334,0.187,0.053,-0.015,-0.099
-0.063,0.107,0.170,-0.022,-0.117,0.139,0.160,0.354,0.203,0.063,-0.015,-0.094
-0.080,0.095,0.175,-0.008,-0.128,0.135,0.160,0.360,0.210,0.075,-0.010,-0.090
-0.058,0.126,0.184,-0.035,-0.121,0.155,0.156,0.365,0.214,0.083,-0.005,-0.090
-0.036,0.146,0.183,-0.055,-0.110,0.164,0.154,0.364,0.218,0.089,-0.005,-0.088
-0.040,0.140,0.180,-0.050,-0.110,0.159,0.156,0.369,0.221,0.090,-0.003,-0.082
-0.052,0.128,0.179,-0.038,-0.116,0.153,0.154,0.375,0.220,0.090,0.000,-0.080
-0.055,0.120,0.175,-0.033,-0.115,0.147,0.150,0.370,0.220,0.090,0.000,-0.080
-0.059,0.116,0.175,-0.029,-0.117,0.145,0.150,0.365,0.224,0.090,0.008,-0.072
-0.028,0.147,0.176,-0.060,-0.102,0.161,0.151,0.365,0.228,0.090,0.013,-0.063
-0.001,0.172,0.173,-0.086,-0.087,0.172,0.148,0.363,0.231,0.090,0.019,-0.058
0.000,0.169,0.170,-0.084,-0.085,0.170,0.145,0.360,0.229,0.090,0.026,-0.053
0.000,0.170,0.170,-0.085,-0.085,0.170,0.145,0.360,0.230,0.090,0.030,-0.045
0.004,0.170,0.166,-0.088,-0.081,0.168,0.145,0.356,0.239,0.098,0.038,-0.037
0.005,0.170,0.164,-0.088,-0.079,0.167,0.146,0.351,0.238,0.104,0.042,-0.032
0.005,0.170,0.166,-0.088,-0.080,0.167,0.142,0.350,0.233,0.104,0.051,-0.028
0.006,0.170,0.164,-0.088,-0.079,0.166,0.133,0.349,0.229,0.099,0.061,-0.025
0.010,0.170,0.160,-0.090,-0.075,0.165,0.130,0.345,0.225,0.095,0.060,-0.025
0.018,0.178,0.160,-0.098,-0.071,0.169,0.126,0.346,0.221,0.095,0.073,-0.025
0.026,0.183,0.157,-0.104,-0.066,0.170,0.119,0.337,0.216,0.093,0.073,-0.025
0.036,0.190,0.154,-0.113,-0.060,0.172,0.112,0.325,0.215,0.087,0.069,-0.025
0.039,0.194,0.155,-0.117,-0.059,0.175,0.109,0.318,0.214,0.085,0.069,-0.025
0.030,0.185,0.155,-0.108,-0.063,0.170,0.105,0.310,0.205,0.085,0.065,-0.025
0.030,0.181,0.151,-0.106,-0.060,0.166,0.093,0.302,0.201,0.081,0.065,-0.025
0.025,0.174,0.149,-0.099,-0.062,0.162,0.083,0.291,0.194,0.077,0.062,-0.022
0.017,0.168,0.151,-0.092,-0.067,0.159,0.077,0.278,0.188,0.073,0.059,-0.019
0.015,0.163,0.149,-0.089,-0.068,0.155,0.067,0.268,0.183,0.069,0.061,-0.020
0.015,0.155,0.140,-0.085,-0.063,0.147,0.055,0.260,0.175,0.065,0.070,-0.020
0.020,0.151,0.131,-0.085,-0.056,0.141,0.047,0.248,0.171,0.061,0.084,-0.020
0.017,0.144,0.127,-0.081,-0.055,0.135,0.037,0.235,0.162,0.057,0.081,-0.020
0.016,0.137,0.122,-0.077,-0.053,0.129,0.039,0.226,0.149,0.052,0.070,-0.020
0.022,0.134,0.113,-0.078,-0.046,0.123,0.045,0.217,0.137,0.043,0.064,-0.019
0.025,0.130,0.105,-0.078,-0.040,0.117,0.035,0.200,0.125,0.035,0.060,-0.020
0.021,0.122,0.101,-0.071,-0.040,0.111,0.031,0.188,0.113,0.031,0.052,-0.032
0.019,0.117,0.097,-0.068,-0.039,0.107,0.024,0.176,0.100,0.025,0.044,-0.043
0.021,0.113,0.093,-0.067,-0.036,0.103,0.018,0.164,0.091,0.015,0.037,-0.044
0.019,0.109,0.090,-0.064,-0.035,0.099,0.013,0.153,0.082,0.009,0.036,-0.039
0.015,0.105,0.090,-0.060,-0.038,0.097,0.005,0.145,0.070,0.005,0.040,-0.040
0.015,0.101,0.086,-0.059,-0.035,0.093,0.001,0.137,0.062,-0.003,0.037,-0.040
0.012,0.097,0.085,-0.055,-0.037,0.091,-0.003,0.129,0.051,-0.008,0.031,-0.040
0.010,0.093,0.083,-0.052,-0.037,0.088,-0.005,0.121,0.040,-0.012,0.030,-0.040
0.009,0.089,0.080,-0.049,-0.035,0.084,-0.006,0.113,0.034,-0.016,0.029,-0.040
0.005,0.085,0.080,-0.045,-0.038,0.082,-0.010,0.105,0.030,-0.020,0.025,-0.040
0.005,0.081,0.076,-0.044,-0.036,0.078,-0.010,0.097,0.026,-0.024,0.025,-0.044
0.002,0.074,0.071,-0.038,-0.034,0.072,-0.013,0.089,0.022,-0.028,0.022,-0.046
-0.002,0.068,0.070,-0.033,-0.036,0.069,-0.015,0.082,0.018,-0.031,0.020,-0.044
-0.006,0.063,0.069,-0.029,-0.038,0.066,-0.016,0.079,0.014,-0.037,0.020,-0.047
-0.010,0.055,0.065,-0.023,-0.038,0.060,-0.020,0.075,0.010,-0.045,0.015,-0.055
-0.014,0.051,0.065,-0.019,-0.040,0.058,-0.019,0.067,0.011,-0.046,0.010,-0.050
-0.017,0.044,0.062,-0.014,-0.039,0.053,-0.029,0.062,0.004,-0.044,0.010,-0.061
-0.024,0.036,0.060,-0.006,-0.042,0.048,-0.037,0.058,-0.003,-0.048,0.008,-0.074
-0.022,0.036,0.058,-0.007,-0.041,0.047,-0.035,0.054,-0.006,-0.057,0.005,-0.075
-0.015,0.040,0.055,-0.013,-0.035,0.047,-0.035,0.050,-0.010,-0.060,0.005,-0.075
-0.040,0.032,0.072,0.003,-0.056,0.052,-0.035,0.050,-0.018,-0.059,0.001,-0.075
-0.047,0.026,0.074,0.010,-0.061,0.049,-0.035,0.047,-0.023,-0.066,0.000,-0.074
-0.046,0.023,0.069,0.011,-0.058,0.046,-0.035,0.045,-0.027,-0.073,-0.001,-0.079
-0.050,0.019,0.069,0.016,-0.060,0.044,-0.036,0.044,-0.030,-0.075,-0.006,-0.085
-0.050,0.015,0.065,0.017,-0.058,0.040,-0.035,0.040,-0.025,-0.075,-0.010,-0.080
-0.054,0.012,0.065,0.020,-0.059,0.038,-0.024,0.040,-0.023,-0.074,-0.014,-0.075
-0.058,0.004,0.062,0.027,-0.060,0.032,-0.040,0.037,-0.041,-0.084,-0.018,-0.075
-0.046,0.014,0.060,0.016,-0.053,0.036,-0.051,0.033,-0.053,-0.094,-0.022,-0.073
-0.036,0.024,0.059,0.006,-0.048,0.041,-0.044,0.029,-0.049,-0.095,-0.026,-0.070
-0.040,0.015,0.055,0.012,-0.048,0.035,-0.045,0.025,-0.050,-0.095,-0.025,-0.070
-0.011,0.044,0.055,-0.017,-0.033,0.049,-0.045,0.021,-0.050,-0.095,-0.021,-0.066
-0.004,0.048,0.052,-0.022,-0.028,0.050,-0.045,0.017,-0.050,-0.095,-0.020,-0.061
-0.016,0.034,0.050,-0.009,-0.033,0.042,-0.045,0.013,-0.050,-0.095,-0.020,-0.060
-0.020,0.029,0.049,-0.005,-0.035,0.039,-0.045,0.009,-0.050,-0.095,-0.020,-0.059
-0.020,0.025,0.045,-0.003,-0.033,0.035,-0.045,0.005,-0.050,-0.095,-0.020,-0.055
-0.028,0.017,0.045,0.005,-0.037,0.031,-0.045,0.005,-0.044,-0.089,-0.018,-0.054
-0.033,0.009,0.042,0.012,-0.038,0.025,-0.045,0.005,-0.054,-0.099,-0.033,-0.060
-0.037,0.001,0.039,0.018,-0.038,0.020,-0.045,0.005,-0.060,-0.105,-0.040,-0.071
-0.040,0.002,0.041,0.019,-0.041,0.022,-0.045,0.005,-0.053,-0.099,-0.034,-0.074
-0.035,0.015,0.050,0.010,-0.043,0.032,-0.045,0.005,-0.050,-0.100,-0.035,-0.065
-0.033,0.024,0.058,0.005,-0.046,0.040,-0.045,0.005,-0.050,-0.096,-0.031,-0.061
-0.044,0.023,0.067,0.011,-0.056,0.045,-0.045,0.005,-0.047,-0.095,-0.029,-0.057
-0.052,0.017,0.069,0.017,-0.060,0.043,-0.045,0.005,-0.043,-0.093,-0.031,-0.053
-0.049,0.015,0.064,0.017,-0.057,0.040,-0.045,0.005,-0.039,-0.089,-0.029,-0.049
-0.050,0.015,0.065,0.017,-0.058,0.040,-0.045,0.005,-0.040,-0.090,-0.025,-0.045
-0.054,0.011,0.066,0.021,-0.060,0.038,-0.045,0.005,-0.051,-0.100,-0.025,-0.041
-0.055,0.006,0.062,0.024,-0.059,0.034,-0.045,0.005,-0.069,-0.122,-0.022,-0.037
-0.055,0.005,0.060,0.025,-0.058,0.032,-0.045,0.005,-0.075,-0.130,-0.019,-0.033
-0.055,0.005,0.060,0.025,-0.058,0.032,-0.045,0.005,-0.069,-0.124,-0.021,-0.029
-0.055,0.005,0.060,0.025,-0.058,0.032,-0.045,0.005,-0.070,-0.125,-0.020,-0.025
-0.054,0.007,0.060,0.023,-0.058,0.033,-0.045,0.005,-0.070,-0.125,-0.017,-0.018
-0.065,-0.008,0.057,0.036,-0.061,0.024,-0.045,0.005,-0.070,-0.125,-0.042,-0.039
-0.069,-0.014,0.054,0.041,-0.061,0.020,-0.045,0.005,-0.070,-0.125,-0.057,-0.052
-0.057,-0.002,0.055,0.029,-0.056,0.027,-0.045,0.005,-0.069,-0.124,-0.049,-0.043
-0.050,0.005,0.055,0.022,-0.053,0.030,-0.045,0.005,-0.065,-0.120,-0.050,-0.040
-0.050,0.001,0.051,0.024,-0.050,0.026,-0.045,0.006,-0.065,-0.120,-0.050,-0.036
-0.052,-0.002,0.050,0.027,-0.050,0.023,-0.047,0.001,-0.065,-0.120,-0.050,-0.032
-0.060,-0.010,0.050,0.035,-0.054,0.019,-0.039,0.001,-0.065,-0.120,-0.050,-0.028
-0.064,-0.014,0.050,0.039,-0.057,0.018,-0.038,-0.003,-0.065,-0.120,-0.050,-0.025
-0.050,0.000,0.050,0.025,-0.050,0.025,-0.055,-0.020,-0.065,-0.120,-0.050,-0.025
-0.031,0.015,0.046,0.008,-0.039,0.030,-0.052,-0.017,-0.065,-0.120,-0.050,-0.021
-0.041,0.003,0.045,0.019,-0.043,0.024,-0.050,-0.011,-0.062,-0.117,-0.050,-0.020
-0.068,-0.023,0.045,0.045,-0.056,0.011,-0.048,-0.010,-0.059,-0.114,-0.050,-0.020
-0.081,-0.036,0.045,0.058,-0.063,0.004,-0.045,-0.009,-0.060,-0.115,-0.050,-0.020
-0.075,-0.030,0.045,0.052,-0.060,0.007,-0.045,-0.005,-0.060,-0.115,-0.050,-0.020
-0.070,-0.025,0.045,0.047,-0.057,0.010,-0.041,-0.001,-0.060,-0.115,-0.050,-0.016
-0.070,-0.025,0.045,0.047,-0.057,0.010,-0.040,0.000,-0.061,-0.116,-0.047,-0.015
-0.068,-0.023,0.045,0.045,-0.056,0.011,-0.038,0.001,-0.058,-0.113,-0.044,-0.015
-0.065,-0.020,0.045,0.042,-0.055,0.012,-0.035,0.006,-0.055,-0.110,-0.045,-0.015
-0.065,-0.020,0.045,0.042,-0.055,0.012,-0.035,0.010,-0.055,-0.110,-0.045,-0.015
-0.061,-0.016,0.045,0.038,-0.053,0.014,-0.035,0.014,-0.055,-0.110,-0.045,-0.011
-0.056,-0.011,0.045,0.033,-0.050,0.017,-0.035,0.018,-0.055,-0.110,-0.045,-0.010
-0.055,-0.010,0.045,0.032,-0.050,0.017,-0.035,0.022,-0.055,-0.110,-0.045,-0.010
-0.054,-0.009,0.045,0.031,-0.049,0.017,-0.035,0.025,-0.055,-0.110,-0.045,-0.010
-0.050,-0.005,0.045,0.027,-0.047,0.020,-0.035,0.025,-0.055,-0.110,-0.045,-0.010
-0.058,-0.004,0.054,0.031,-0.055,0.025,-0.035,0.025,-0.051,-0.114,-0.045,-0.010
-0.063,-0.010,0.053,0.036,-0.057,0.021,-0.032,0.025,-0.049,-0.116,-0.045,-0.007
-0.069,-0.020,0.049,0.045,-0.059,0.014,-0.029,0.025,-0.051,-0.113,-0.045,-0.004
-0.075,-0.025,0.050,0.050,-0.063,0.012,-0.030,0.025,-0.049,-0.110,-0.045,-0.005
-0.070,-0.020,0.050,0.045,-0.060,0.015,-0.030,0.025,-0.045,-0.110,-0.045,-0.005
-0.064,-0.015,0.048,0.039,-0.055,0.016,-0.030,0.025,-0.045,-0.110,-0.041,-0.005
-0.078,-0.015,0.063,0.047,-0.070,0.023,-0.030,0.025,-0.045,-0.107,-0.040,-0.002
-0.083,-0.013,0.070,0.048,-0.076,0.028,-0.030,0.025,-0.045,-0.104,-0.040,0.001
-0.074,-0.010,0.064,0.041,-0.069,0.027,-0.030,0.025,-0.044,-0.105,-0.040,0.000
-0.075,-0.010,0.065,0.042,-0.070,0.027,-0.030,0.025,-0.040,-0.105,-0.040,0.000
-0.067,-0.006,0.061,0.037,-0.064,0.027,-0.026,0.034,-0.040,-0.101,-0.036,0.000
-0.061,-0.001,0.059,0.031,-0.060,0.029,-0.025,0.033,-0.041,-0.100,-0.035,0.000
-0.061,0.000,0.061,0.030,-0.061,0.030,-0.025,0.029,-0.038,-0.100,-0.035,-0.002
-0.058,0.001,0.059,0.029,-0.059,0.030,-0.025,0.030,-0.035,-0.100,-0.035,-0.006
-0.050,0.005,0.055,0.022,-0.053,0.030,-0.025,0.030,-0.035,-0.100,-0.035,-0.005
-0.050,0.005,0.055,0.022,-0.053,0.030,-0.025,0.026,-0.035,-0.096,-0.031,-0.001
-0.048,0.007,0.056,0.020,-0.052,0.031,-0.025,0.025,-0.036,-0.095,-0.030,0.000
-0.040,0.013,0.053,0.013,-0.047,0.033,-0.025,0.025,-0.033,-0.093,-0.030,0.002
-0.044,0.006,0.050,0.019,-0.047,0.027,-0.025,0.025,-0.030,-0.090,-0.030,0.005
-0.065,-0.015,0.050,0.040,-0.057,0.017,-0.025,0.030,-0.030,-0.090,-0.030,0.005
-0.062,-0.012,0.051,0.037,-0.056,0.019,-0.025,0.043,-0.030,-0.086,-0.030,0.009
-0.056,-0.009,0.047,0.032,-0.051,0.019,-0.025,0.043,-0.031,-0.084,-0.027,0.010
-0.055,-0.011,0.045,0.033,-0.050,0.016,-0.025,0.039,-0.028,-0.086,-0.024,0.012
-0.054,-0.009,0.045,0.031,-0.049,0.017,-0.025,0.040,-0.025,-0.084,-0.025,0.015
-0.050,-0.005,0.045,0.027,-0.047,0.020,-0.025,0.040,-0.025,-0.080,-0.025,0.015
-0.058,-0.005,0.053,0.031,-0.055,0.024,-0.025,0.040,-0.025,-0.080,-0.025,0.019
-0.060,-0.006,0.055,0.033,-0.057,0.024,-0.025,0.040,-0.025,-0.077,-0.022,0.021
-0.047,-0.003,0.044,0.025,-0.045,0.020,-0.025,0.040,-0.025,-0.075,-0.019,0.018
-0.051,0.000,0.052,0.025,-0.051,0.026,-0.025,0.040,-0.025,-0.074,-0.020,0.014
-0.085,0.000,0.085,0.042,-0.085,0.042,-0.025,0.040,-0.025,-0.070,-0.020,0.015
-0.083,0.000,0.083,0.042,-0.083,0.041,-0.025,0.036,-0.025,-0.070,-0.020,0.027
-0.076,0.003,0.079,0.036,-0.077,0.041,-0.025,0.035,-0.022,-0.071,-0.019,0.034
-0.075,0.006,0.080,0.035,-0.078,0.042,-0.025,0.035,-0.019,-0.068,-0.022,0.035
-0.075,0.005,0.080,0.035,-0.078,0.042,-0.025,0.035,-0.020,-0.065,-0.025,0.035
-0.075,0.005,0.080,0.035,-0.078,0.042,-0.025,0.035,-0.020,-0.065,-0.025,0.035
-0.067,0.009,0.076,0.028,-0.071,0.042,-0.025,0.035,-0.020,-0.065,-0.025,0.035
-0.064,0.011,0.075,0.026,-0.069,0.042,-0.025,0.035,-0.020,-0.065,-0.025,0.035
-0.066,0.009,0.075,0.028,-0.070,0.042,-0.025,0.035,-0.020,-0.065,-0.025,0.035
-0.064,0.011,0.075,0.026,-0.070,0.043,-0.025,0.034,-0.020,-0.065,-0.025,0.035
-0.060,0.015,0.075,0.022,-0.068,0.045,-0.025,0.030,-0.020,-0.065,-0.025,0.035
-0.056,0.015,0.071,0.020,-0.064,0.043,-0.025,0.030,-0.016,-0.065,-0.025,0.035
-0.055,0.014,0.070,0.020,-0.063,0.041,-0.025,0.030,-0.015,-0.065,-0.025,0.035
-0.053,0.017,0.070,0.018,-0.062,0.043,-0.025,0.030,-0.015,-0.065,-0.025,0.035
-0.049,0.020,0.070,0.015,-0.060,0.045,-0.025,0.030,-0.015,-0.065,-0.025,0.035
-0.050,0.020,0.070,0.015,-0.060,0.045,-0.025,0.030,-0.015,-0.065,-0.025,0.035
-0.051,0.020,0.070,0.016,-0.061,0.045,-0.025,0.030,-0.015,-0.059,-0.024,0.035
-0.046,0.021,0.067,0.012,-0.056,0.044,-0.026,0.030,-0.015,-0.069,-0.031,0.035
-0.048,0.017,0.064,0.015,-0.056,0.040,-0.023,0.030,-0.015,-0.075,-0.036,0.035
-0.057,0.008,0.065,0.024,-0.061,0.036,-0.020,0.031,-0.015,-0.069,-0.035,0.035
-0.060,0.005,0.065,0.027,-0.063,0.035,-0.020,0.035,-0.015,-0.070,-0.035,0.035
-0.049,0.016,0.065,0.016,-0.057,0.040,-0.020,0.035,-0.011,-0.070,-0.035,0.035
-0.031,0.031,0.062,-0.001,-0.046,0.046,-0.020,0.035,-0.010,-0.070,-0.035,0.035
-0.026,0.033,0.059,-0.003,-0.043,0.046,-0.020,0.035,-0.010,-0.070,-0.035,0.035
-0.038,0.022,0.060,0.008,-0.049,0.041,-0.020,0.034,-0.010,-0.070,-0.035,0.035
-0.045,0.015,0.060,0.015,-0.053,0.037,-0.020,0.030,-0.010,-0.070,-0.035,0.035
-0.049,0.011,0.060,0.019,-0.054,0.036,-0.020,0.030,-0.010,-0.070,-0.035,0.035
-0.057,0.004,0.061,0.026,-0.058,0.032,-0.020,0.030,-0.010,-0.067,-0.035,0.035
-0.061,-0.003,0.058,0.032,-0.059,0.027,-0.020,0.030,-0.010,-0.064,-0.035,0.035
-0.060,-0.014,0.046,0.037,-0.053,0.016,-0.019,0.030,-0.010,-0.065,-0.035,0.035
-0.055,-0.015,0.040,0.035,-0.047,0.012,-0.020,0.030,-0.010,-0.065,-0.035,0.035
-0.034,0.035,0.069,-0.001,-0.052,0.052,-0.033,0.026,-0.010,-0.065,-0.035,0.035
-0.028,0.048,0.075,-0.010,-0.052,0.061,-0.036,0.025,-0.010,-0.065,-0.035,0.035
-0.032,0.036,0.068,-0.002,-0.050,0.052,-0.035,0.025,-0.010,-0.065,-0.035,0.035
-0.036,0.034,0.070,0.001,-0.054,0.052,-0.035,0.025,-0.010,-0.065,-0.035,0.035
-0.040,0.030,0.070,0.005,-0.055,0.050,-0.035,0.025,-0.010,-0.065,-0.035,0.035
-0.044,0.026,0.070,0.009,-0.057,0.048,-0.035,0.025,-0.010,-0.073,-0.035,0.035
-0.049,0.022,0.070,0.014,-0.059,0.046,-0.035,0.026,-0.009,-0.076,-0.035,0.038
-0.050,0.020,0.070,0.015,-0.060,0.045,-0.035,0.023,-0.013,-0.074,-0.035,0.041
-0.059,0.011,0.070,0.024,-0.065,0.040,-0.035,0.020,-0.023,-0.077,-0.035,0.039
-0.070,0.000,0.070,0.035,-0.070,0.035,-0.035,0.020,-0.030,-0.085,-0.035,0.035
-0.049,0.021,0.070,0.014,-0.060,0.045,-0.035,0.020,-0.026,-0.082,-0.035,0.035
-0.045,0.025,0.070,0.010,-0.058,0.047,-0.035,0.020,-0.024,-0.076,-0.035,0.035
-0.053,0.017,0.070,0.018,-0.062,0.043,-0.035,0.020,-0.025,-0.077,-0.035,0.035
-0.056,0.014,0.070,0.021,-0.063,0.042,-0.035,0.019,-0.025,-0.089,-0.035,0.035
-0.060,0.010,0.070,0.025,-0.065,0.040,-0.035,0.015,-0.025,-0.100,-0.035,0.035
-0.064,0.006,0.070,0.029,-0.067,0.038,-0.035,0.015,-0.025,-0.096,-0.035,0.035
-0.068,0.002,0.070,0.033,-0.069,0.036,-0.035,0.015,-0.023,-0.094,-0.033,0.036
-0.071,-0.001,0.070,0.036,-0.071,0.034,-0.035,0.015,-0.031,-0.095,-0.041,0.033
-0.068,0.002,0.070,0.033,-0.069,0.036,-0.035,0.015,-0.040,-0.095,-0.050,0.030
-0.060,0.010,0.070,0.025,-0.065,0.040,-0.035,0.015,-0.035,-0.095,-0.040,0.030
-0.056,0.014,0.070,0.021,-0.064,0.042,-0.035,0.015,-0.035,-0.095,-0.036,0.030
-0.049,0.021,0.070,0.014,-0.060,0.045,-0.035,0.015,-0.035,-0.092,-0.032,0.030
-0.042,0.028,0.070,0.007,-0.057,0.049,-0.035,0.015,-0.035,-0.089,-0.028,0.030
-0.040,0.029,0.069,0.005,-0.054,0.049,-0.035,0.015,-0.035,-0.090,-0.024,0.030
-0.040,0.025,0.065,0.007,-0.053,0.045,-0.035,0.015,-0.035,-0.090,-0.020,0.030
-0.040,0.025,0.065,0.007,-0.053,0.045,-0.035,0.015,-0.035,-0.090,-0.014,0.030
-0.037,0.025,0.062,0.006,-0.050,0.043,-0.035,0.015,-0.036,-0.090,-0.028,0.027
-0.034,0.025,0.059,0.005,-0.047,0.042,-0.035,0.016,-0.033,-0.090,-0.035,0.024
-0.035,0.025,0.060,0.005,-0.048,0.042,-0.035,0.013,-0.030,-0.089,-0.029,0.025
-0.035,0.025,0.060,0.005,-0.048,0.042,-0.035,0.010,-0.030,-0.085,-0.030,0.025
-0.035,0.021,0.056,0.007,-0.046,0.038,-0.035,0.023,-0.030,-0.085,-0.030,0.025
-0.035,0.020,0.054,0.007,-0.045,0.037,-0.035,0.023,-0.030,-0.085,-0.030,0.025
-0.035,0.020,0.056,0.007,-0.046,0.037,-0.035,0.019,-0.030,-0.085,-0.030,0.025
-0.034,0.020,0.054,0.007,-0.044,0.037,-0.035,0.020,-0.030,-0.085,-0.030,0.025
-0.030,0.020,0.050,0.005,-0.040,0.035,-0.035,0.020,-0.030,-0.085,-0.030,0.025
-0.030,0.020,0.050,0.005,-0.040,0.035,-0.034,0.016,-0.030,-0.081,-0.030,0.025
-0.030,0.021,0.051,0.005,-0.040,0.036,-0.041,0.015,-0.027,-0.080,-0.030,0.028
-0.030,0.018,0.048,0.006,-0.039,0.033,-0.046,0.015,-0.024,-0.080,-0.030,0.031
-0.030,0.015,0.045,0.007,-0.038,0.030,-0.045,0.015,-0.025,-0.080,-0.030,0.030
-0.030,0.015,0.045,0.007,-0.038,0.030,-0.045,0.015,-0.025,-0.080,-0.030,0.030
-0.030,0.015,0.045,0.007,-0.038,0.030,-0.045,0.011,-0.025,-0.080,-0.030,0.030
-0.027,0.015,0.042,0.006,-0.035,0.028,-0.045,0.010,-0.025,-0.078,-0.030,0.027
-0.024,0.015,0.039,0.004,-0.032,0.027,-0.045,0.010,-0.025,-0.086,-0.030,0.024
-0.026,0.014,0.040,0.006,-0.033,0.027,-0.045,0.010,-0.025,-0.096,-0.030,0.025
-0.030,0.010,0.040,0.010,-0.035,0.025,-0.045,0.010,-0.025,-0.095,-0.030,0.025
-0.030,0.010,0.040,0.010,-0.035,0.025,-0.045,0.006,-0.025,-0.096,-0.030,0.025
-0.030,0.010,0.040,0.010,-0.035,0.025,-0.045,0.004,-0.026,-0.091,-0.030,0.025
-0.030,0.010,0.040,0.010,-0.035,0.025,-0.045,0.006,-0.037,-0.095,-0.030,0.025
-0.030,0.010,0.040,0.010,-0.035,0.025,-0.045,0.004,-0.045,-0.107,-0.030,0.025
-0.030,0.010,0.040,0.010,-0.035,0.025,-0.045,0.000,-0.040,-0.110,-0.030,0.025
-0.029,0.011,0.040,0.009,-0.035,0.025,-0.045,0.000,-0.040,-0.110,-0.030,0.025
-0.034,0.006,0.040,0.014,-0.037,0.023,-0.045,0.000,-0.040,-0.110,-0.030,0.025
-0.034,0.006,0.040,0.014,-0.038,0.022,-0.045,0.000,-0.040,-0.110,-0.030,0.025
-0.038,0.002,0.040,0.018,-0.039,0.021,-0.045,-0.001,-0.040,-0.110,-0.030,0.025
-0.050,-0.010,0.040,0.030,-0.045,0.015,-0.045,-0.005,-0.040,-0.110,-0.030,0.025
-0.046,-0.006,0.040,0.026,-0.043,0.016,-0.045,-0.005,-0.040,-0.110,-0.030,0.025
-0.044,-0.004,0.040,0.024,-0.042,0.017,-0.045,-0.005,-0.041,-0.110,-0.028,0.025
-0.045,-0.005,0.040,0.025,-0.042,0.017,-0.045,-0.005,-0.038,-0.110,-0.036,0.025
-0.045,-0.005,0.040,0.025,-0.042,0.017,-0.045,-0.004,-0.035,-0.110,-0.045,0.025
-0.045,-0.005,0.040,0.025,-0.042,0.017,-0.045,0.000,-0.035,-0.110,-0.040,0.025
-0.041,-0.001,0.040,0.021,-0.040,0.020,-0.045,0.000,-0.035,-0.110,-0.040,0.025
-0.040,0.000,0.040,0.020,-0.040,0.020,-0.045,0.000,-0.035,-0.110,-0.040,0.025
-0.040,0.000,0.040,0.020,-0.040,0.020,-0.045,0.000,-0.035,-0.110,-0.040,0.025
-0.040,0.000,0.040,0.020,-0.040,0.020,-0.045,0.000,-0.035,-0.110,-0.039,0.025
-0.040,0.000,0.040,0.020,-0.040,0.020,-0.045,0.000,-0.035,-0.110,-0.035,0.025
-0.040,0.000,0.040,0.020,-0.040,0.020,-0.041,0.000,-0.035,-0.110,-0.035,0.025
-0.037,0.003,0.040,0.017,-0.039,0.021,-0.040,0.000,-0.032,-0.110,-0.035,0.025
-0.035,0.006,0.040,0.015,-0.038,0.022,-0.040,0.000,-0.029,-0.110,-0.035,0.025
-0.034,0.005,0.039,0.015,-0.037,0.022,-0.040,0.000,-0.030,-0.110,-0.034,0.024
-0.030,0.005,0.035,0.012,-0.033,0.020,-0.040,0.000,-0.030,-0.110,-0.030,0.020
-0.030,0.005,0.035,0.012,-0.033,0.020,-0.036,0.000,-0.030,-0.110,-0.030,0.020
-0.028,0.008,0.036,0.009,-0.032,0.021,-0.035,-0.001,-0.030,-0.110,-0.030,0.018
-0.023,0.011,0.033,0.006,-0.028,0.021,-0.035,0.002,-0.030,-0.110,-0.030,0.012
-0.020,0.010,0.030,0.005,-0.025,0.020,-0.035,0.005,-0.030,-0.110,-0.030,0.019
-0.020,0.010,0.030,0.005,-0.025,0.020,-0.035,0.005,-0.030,-0.110,-0.030,0.040
-0.020,0.010,0.030,0.005,-0.025,0.020,-0.031,0.005,-0.030,-0.110,-0.026,0.037
-0.020,0.010,0.030,0.005,-0.025,0.020,-0.030,0.005,-0.027,-0.107,-0.025,0.034
-0.020,0.009,0.028,0.005,-0.024,0.018,-0.030,0.005,-0.024,-0.104,-0.025,0.035
-0.021,0.004,0.025,0.008,-0.023,0.014,-0.030,0.005,-0.025,-0.105,-0.025,0.035
-0.025,0.000,0.025,0.012,-0.025,0.012,-0.030,0.005,-0.025,-0.105,-0.025,0.035
-0.025,0.000,0.025,0.012,-0.025,0.012,-0.030,0.005,-0.025,-0.105,-0.021,0.035
-0.024,-0.002,0.022,0.013,-0.023,0.009,-0.027,0.005,-0.025,-0.102,-0.020,0.035
-0.027,-0.007,0.020,0.017,-0.023,0.006,-0.024,0.005,-0.025,-0.099,-0.020,0.035
-0.030,-0.010,0.020,0.020,-0.025,0.005,-0.025,0.005,-0.025,-0.100,-0.020,0.035
-0.030,-0.010,0.020,0.020,-0.025,0.005,-0.025,0.005,-0.025,-0.100,-0.020,0.035
-0.031,-0.010,0.021,0.021,-0.026,0.005,-0.025,0.005,-0.021,-0.100,-0.021,0.035
-0.023,-0.009,0.014,0.016,-0.019,0.003,-0.022,0.008,-0.020,-0.097,-0.011,0.035
-0.021,-0.014,0.007,0.018,-0.014,-0.003,-0.019,0.010,-0.020,-0.094,-0.017,0.035
-0.024,-0.020,0.004,0.022,-0.014,-0.007,-0.020,0.011,-0.020,-0.095,-0.030,0.035
-0.015,-0.015,0.000,0.015,-0.007,-0.007,-0.020,0.015,-0.020,-0.095,-0.025,0.035
-0.009,-0.015,-0.006,0.012,-0.001,-0.010,-0.020,0.015,-0.020,-0.095,-0.039,0.035
-0.020,-0.015,0.005,0.017,-0.012,-0.005,-0.019,0.015,-0.020,-0.096,-0.029,0.035
-0.040,-0.015,0.025,0.027,-0.032,0.005,-0.025,0.015,-0.020,-0.093,-0.033,0.035
-0.050,-0.015,0.035,0.032,-0.042,0.010,-0.037,0.015,-0.019,-0.090,-0.052,0.035
-0.045,-0.015,0.030,0.030,-0.037,0.007,-0.040,0.015,-0.015,-0.090,-0.045,0.035
-0.045,-0.015,0.030,0.030,-0.037,0.007,-0.040,0.015,-0.015,-0.090,-0.044,0.035
-0.046,-0.016,0.030,0.031,-0.037,0.007,-0.037,0.015,-0.015,-0.091,-0.046,0.035
-0.043,-0.013,0.030,0.028,-0.036,0.008,-0.034,0.014,-0.015,-0.088,-0.043,0.035
-0.040,-0.010,0.030,0.025,-0.035,0.010,-0.035,0.017,-0.015,-0.085,-0.040,0.035
-0.040,-0.010,0.030,0.025,-0.035,0.010,-0.035,0.025,-0.015,-0.085,-0.040,0.035
-0.040,-0.010,0.030,0.025,-0.035,0.010,-0.031,0.025,-0.015,-0.085,-0.040,0.035
-0.040,-0.010,0.031,0.025,-0.036,0.010,-0.029,0.025,-0.015,-0.085,-0.037,0.036
-0.038,-0.010,0.028,0.024,-0.033,0.009,-0.031,0.025,-0.015,-0.085,-0.034,0.033
-0.035,-0.010,0.025,0.022,-0.030,0.007,-0.029,0.025,-0.016,-0.084,-0.035,0.030
-0.035,-0.010,0.025,0.022,-0.030,0.007,-0.025,0.025,-0.020,-0.080,-0.035,0.030
-0.035,-0.010,0.025,0.022,-0.030,0.007,-0.025,0.025,-0.020,-0.080,-0.031,0.030
-0.032,-0.007,0.025,0.019,-0.028,0.009,-0.026,0.025,-0.020,-0.081,-0.029,0.027
-0.030,-0.004,0.025,0.016,-0.027,0.010,-0.023,0.025,-0.020,-0.078,-0.031,0.025
-0.030,-0.005,0.025,0.017,-0.027,0.010,-0.020,0.025,-0.019,-0.075,-0.029,0.025
-0.030,-0.005,0.025,0.017,-0.027,0.010,-0.020,0.025,-0.015,-0.075,-0.025,0.025
-0.030,-0.005,0.025,0.017,-0.027,0.010,-0.020,0.025,-0.015,-0.075,-0.025,0.025
-0.027,-0.005,0.022,0.016,-0.024,0.008,-0.017,0.025,-0.012,-0.075,-0.026,0.022
-0.024,-0.005,0.019,0.015,-0.021,0.007,-0.014,0.025,-0.010,-0.073,-0.023,0.019
-0.025,-0.005,0.020,0.015,-0.022,0.007,-0.015,0.025,-0.009,-0.070,-0.020,0.020
-0.025,-0.005,0.020,0.015,-0.022,0.007,-0.015,0.025,-0.005,-0.070,-0.020,0.020
-0.025,-0.005,0.020,0.015,-0.022,0.007,-0.011,0.025,-0.005,-0.070,-0.020,0.016
-0.022,-0.002,0.020,0.012,-0.021,0.009,-0.009,0.025,-0.002,-0.067,-0.017,0.015
-0.018,0.002,0.020,0.008,-0.019,0.011,-0.011,0.025,0.000,-0.065,-0.014,0.015
-0.014,0.006,0.020,0.004,-0.018,0.013,-0.009,0.025,0.001,-0.065,-0.015,0.015
-0.010,0.010,0.020,0.000,-0.015,0.015,-0.005,0.025,0.005,-0.065,-0.015,0.015
-0.005,0.015,0.019,-0.005,-0.012,0.016,-0.005,0.025,0.005,-0.065,-0.014,0.023
-0.012,0.013,0.025,-0.001,-0.019,0.019,-0.005,0.025,0.008,-0.062,-0.022,0.027
-0.028,0.005,0.034,0.011,-0.031,0.020,-0.005,0.024,0.010,-0.059,-0.024,0.036
-0.025,0.009,0.034,0.008,-0.030,0.021,-0.004,0.026,0.011,-0.060,-0.019,0.047
0.000,0.035,0.035,-0.018,-0.018,0.035,0.000,0.035,0.015,-0.060,-0.020,0.050
-0.003,0.058,0.060,-0.028,-0.032,0.059,0.004,0.039,0.015,-0.060,-0.020,0.050
-0.009,0.056,0.065,-0.024,-0.037,0.060,0.005,0.041,0.015,-0.057,-0.020,0.050
-0.012,0.045,0.057,-0.017,-0.035,0.051,0.006,0.039,0.014,-0.054,-0.020,0.050
-0.016,0.039,0.054,-0.012,-0.035,0.046,0.011,0.043,0.017,-0.055,-0.020,0.050
-0.020,0.030,0.050,-0.005,-0.035,0.040,0.015,0.055,0.030,-0.055,-0.020,0.050
-0.025,0.021,0.046,0.002,-0.036,0.033,0.016,0.051,0.039,-0.055,-0.016,0.050
0.014,0.059,0.045,-0.037,-0.016,0.052,0.012,0.049,0.037,-0.055,-0.015,0.050
0.041,0.084,0.044,-0.063,-0.002,0.063,0.010,0.051,0.034,-0.055,-0.015,0.050
0.034,0.073,0.039,-0.054,-0.003,0.056,0.009,0.049,0.035,-0.056,-0.015,0.050
0.040,0.075,0.035,-0.058,0.002,0.055,0.005,0.045,0.035,-0.060,-0.015,0.050
0.044,0.075,0.031,-0.060,0.006,0.053,0.005,0.045,0.031,-0.065,-0.015,0.050
0.048,0.075,0.027,-0.062,0.010,0.051,0.002,0.045,0.029,-0.062,-0.016,0.050
0.052,0.075,0.023,-0.064,0.014,0.049,0.000,0.045,0.031,-0.059,-0.013,0.050
0.047,0.075,0.028,-0.061,0.009,0.051,-0.001,0.044,0.029,-0.060,-0.010,0.050
0.035,0.075,0.040,-0.055,-0.003,0.057,-0.010,0.040,0.025,-0.060,-0.010,0.050
0.039,0.075,0.036,-0.058,0.001,0.056,-0.019,0.040,0.025,-0.060,-0.010,0.050
0.038,0.072,0.034,-0.055,0.002,0.053,-0.023,0.041,0.026,-0.060,-0.010,0.050
0.034,0.069,0.035,-0.052,0.000,0.052,-0.028,0.038,0.023,-0.060,-0.010,0.050
0.035,0.070,0.035,-0.053,0.000,0.052,-0.037,0.035,0.020,-0.060,-0.011,0.050
0.035,0.070,0.035,-0.053,0.000,0.052,-0.045,0.035,0.020,-0.060,-0.010,0.050
0.035,0.070,0.035,-0.053,0.000,0.052,-0.050,0.035,0.020,-0.060,0.002,0.049
0.035,0.070,0.035,-0.053,0.000,0.052,-0.047,0.035,0.017,-0.060,0.012,0.061
0.034,0.070,0.035,-0.053,0.000,0.052,-0.044,0.033,0.014,-0.060,0.018,0.076
0.036,0.070,0.034,-0.054,0.001,0.052,-0.046,0.030,0.015,-0.060,0.028,0.080
0.040,0.070,0.030,-0.055,0.005,0.050,-0.055,0.030,0.015,-0.060,0.035,0.075
0.036,0.066,0.030,-0.051,0.003,0.047,-0.063,0.030,0.011,-0.056,0.031,0.075
0.034,0.065,0.030,-0.050,0.002,0.047,-0.072,0.027,0.009,-0.055,0.030,0.076
0.035,0.065,0.030,-0.050,0.002,0.047,-0.074,0.025,0.011,-0.055,0.028,0.073
0.035,0.065,0.030,-0.050,0.002,0.047,-0.069,0.025,0.009,-0.055,0.024,0.070
0.035,0.065,0.030,-0.050,0.002,0.047,-0.070,0.025,0.005,-0.055,0.025,0.070
0.035,0.065,0.030,-0.050,0.002,0.047,-0.070,0.025,0.005,-0.055,0.026,0.070
0.034,0.065,0.031,-0.050,0.001,0.047,-0.070,0.022,0.005,-0.055,0.022,0.067
0.037,0.065,0.028,-0.051,0.004,0.046,-0.068,0.019,0.005,-0.055,0.020,0.064
0.041,0.065,0.025,-0.053,0.007,0.045,-0.065,0.020,0.006,-0.055,0.019,0.065
0.040,0.065,0.025,-0.053,0.007,0.045,-0.065,0.020,0.010,-0.055,0.015,0.065
0.036,0.061,0.025,-0.049,0.006,0.043,-0.065,0.020,0.014,-0.055,0.015,0.061
0.031,0.056,0.025,-0.044,0.003,0.040,-0.066,0.017,0.018,-0.055,0.016,0.059
0.030,0.055,0.025,-0.043,0.002,0.040,-0.063,0.014,0.021,-0.054,0.013,0.061
0.029,0.054,0.025,-0.042,0.002,0.040,-0.060,0.015,0.019,-0.057,0.010,0.059
0.025,0.050,0.025,-0.038,0.000,0.037,-0.060,0.015,0.015,-0.065,0.010,0.055
0.025,0.050,0.025,-0.038,0.000,0.037,-0.060,0.011,0.015,-0.066,0.006,0.055
0.022,0.048,0.026,-0.035,-0.002,0.036,-0.060,0.010,0.012,-0.064,0.004,0.056
0.019,0.042,0.023,-0.031,-0.002,0.033,-0.060,0.010,0.009,-0.069,0.006,0.053
0.020,0.040,0.020,-0.030,0.001,0.030,-0.059,0.010,0.010,-0.075,0.004,0.050
0.020,0.040,0.020,-0.030,0.000,0.030,-0.055,0.010,0.010,-0.070,0.000,0.050
0.015,0.036,0.020,-0.025,-0.003,0.028,-0.055,0.006,0.006,-0.070,0.000,0.051
0.018,0.035,0.017,-0.027,0.000,0.026,-0.055,0.005,0.005,-0.067,0.000,0.047
0.019,0.034,0.014,-0.027,0.002,0.024,-0.055,0.005,0.003,-0.064,-0.001,0.045
0.014,0.029,0.015,-0.022,-0.001,0.022,-0.054,0.005,-0.001,-0.065,-0.006,0.044
0.010,0.025,0.015,-0.018,-0.003,0.020,-0.050,0.005,0.000,-0.070,-0.010,0.040
0.010,0.021,0.011,-0.016,0.000,0.016,-0.050,0.001,0.001,-0.083,-0.010,0.040
0.008,0.017,0.009,-0.012,-0.001,0.013,-0.050,0.000,-0.003,-0.086,-0.013,0.037
0.002,0.012,0.011,-0.007,-0.005,0.011,-0.050,-0.002,-0.005,-0.085,-0.015,0.035
0.001,0.010,0.009,-0.005,-0.004,0.010,-0.050,-0.006,-0.006,-0.085,-0.016,0.034
0.000,0.005,0.005,-0.003,-0.003,0.005,-0.050,-0.005,-0.010,-0.085,-0.020,0.030
-0.021,-0.016,0.005,0.018,-0.013,-0.005,-0.050,-0.001,-0.010,-0.085,-0.020,0.030
-0.025,-0.019,0.006,0.021,-0.015,-0.006,-0.050,0.000,-0.009,-0.085,-0.022,0.030
-0.017,-0.014,0.003,0.015,-0.009,-0.005,-0.050,0.002,-0.012,-0.085,-0.028,0.030
-0.015,-0.015,0.000,0.015,-0.007,-0.007,-0.050,0.006,-0.015,-0.085,-0.030,0.030
-0.015,-0.015,0.000,0.015,-0.007,-0.007,-0.050,0.005,-0.015,-0.085,-0.030,0.030
-0.015,-0.015,0.000,0.015,-0.007,-0.007,-0.050,0.001,-0.015,-0.086,-0.034,0.026
-0.014,-0.017,-0.003,0.016,-0.005,-0.009,-0.050,-0.003,-0.014,-0.081,-0.035,0.025
-0.019,-0.025,-0.006,0.023,-0.007,-0.015,-0.049,-0.007,-0.018,-0.084,-0.037,0.025
-0.025,-0.030,-0.005,0.028,-0.010,-0.017,-0.052,-0.011,-0.028,-0.098,-0.041,0.025
-0.020,-0.025,-0.005,0.023,-0.007,-0.015,-0.060,-0.015,-0.035,-0.105,-0.040,0.025
-0.015,-0.025,-0.009,0.020,-0.003,-0.017,-0.056,-0.019,-0.031,-0.101,-0.036,0.025
-0.015,-0.025,-0.010,0.020,-0.002,-0.017,-0.054,-0.021,-0.029,-0.099,-0.032,0.026
-0.015,-0.025,-0.010,0.020,-0.002,-0.017,-0.056,-0.018,-0.030,-0.100,-0.029,0.023
-0.016,-0.025,-0.010,0.020,-0.002,-0.017,-0.054,-0.015,-0.030,-0.100,-0.023,0.020
-0.015,-0.025,-0.010,0.020,-0.002,-0.017,-0.050,-0.015,-0.030,-0.100,-0.020,0.020
-0.005,-0.023,-0.018,0.014,0.007,-0.020,-0.050,-0.015,-0.030,-0.100,-0.036,0.020
-0.014,-0.035,-0.021,0.025,0.004,-0.028,-0.051,-0.016,-0.030,-0.100,-0.048,0.020
-0.019,-0.038,-0.019,0.029,0.000,-0.029,-0.048,-0.013,-0.030,-0.100,-0.051,0.020
-0.006,-0.028,-0.022,0.017,0.008,-0.025,-0.045,-0.010,-0.030,-0.100,-0.050,0.019
0.005,-0.025,-0.030,0.010,0.018,-0.027,-0.045,-0.010,-0.030,-0.100,-0.050,0.015
0.005,-0.021,-0.026,0.009,0.016,-0.023,-0.045,-0.010,-0.030,-0.100,-0.053,0.015
0.008,-0.017,-0.025,0.005,0.017,-0.021,-0.042,-0.010,-0.027,-0.100,-0.062,0.015
0.010,-0.014,-0.023,0.002,0.017,-0.019,-0.039,-0.010,-0.024,-0.100,-0.064,0.015
0.012,-0.008,-0.019,-0.002,0.016,-0.014,-0.040,-0.009,-0.025,-0.100,-0.059,0.015
0.015,-0.005,-0.020,-0.005,0.018,-0.012,-0.040,-0.005,-0.025,-0.100,-0.060,0.015
-0.007,-0.028,-0.021,0.017,0.007,-0.024,-0.036,-0.005,-0.025,-0.100,-0.060,0.016
-0.037,-0.054,-0.017,0.046,-0.010,-0.035,-0.034,-0.005,-0.025,-0.100,-0.057,0.009
-0.044,-0.059,-0.015,0.052,-0.014,-0.036,-0.036,-0.005,-0.025,-0.100,-0.054,0.002
-0.033,-0.047,-0.014,0.041,-0.009,-0.030,-0.034,-0.005,-0.025,-0.100,-0.056,-0.001
-0.030,-0.040,-0.010,0.035,-0.010,-0.025,-0.030,-0.005,-0.025,-0.100,-0.055,-0.005
-0.022,-0.032,-0.010,0.027,-0.006,-0.021,-0.029,0.003,-0.025,-0.100,-0.048,-0.013
-0.013,-0.024,-0.011,0.019,-0.001,-0.018,-0.031,0.011,-0.027,-0.102,-0.067,-0.018
-0.008,-0.015,-0.007,0.012,-0.001,-0.011,-0.025,0.020,-0.017,-0.092,-0.071,-0.024
-0.012,-0.010,0.002,0.011,-0.007,-0.004,-0.012,0.025,0.005,-0.070,-0.051,-0.023
-0.015,-0.005,0.010,0.010,-0.012,0.002,-0.005,0.030,0.025,-0.050,-0.040,-0.005
0.003,0.020,0.017,-0.011,-0.008,0.018,0.003,0.062,0.061,-0.010,-0.027,0.009
-0.001,0.028,0.029,-0.014,-0.015,0.028,0.013,0.089,0.096,0.026,-0.021,0.007
-0.002,0.022,0.025,-0.010,-0.014,0.023,0.013,0.115,0.140,0.070,0.016,0.023
0.023,0.028,0.005,-0.026,0.008,0.017,0.020,0.176,0.219,0.141,0.080,0.066
0.060,0.050,-0.010,-0.055,0.035,0.020,0.050,0.270,0.325,0.230,0.135,0.110
0.097,0.070,-0.026,-0.084,0.061,0.022,0.062,0.333,0.412,0.312,0.208,0.162
0.130,0.090,-0.041,-0.110,0.085,0.024,0.079,0.416,0.519,0.418,0.301,0.216
0.191,0.127,-0.064,-0.159,0.127,0.031,0.065,0.508,0.656,0.560,0.415,0.279
0.285,0.177,-0.108,-0.231,0.196,0.035,0.020,0.555,0.791,0.721,0.569,0.382
0.395,0.230,-0.165,-0.312,0.280,0.032,-0.020,0.555,0.905,0.885,0.770,0.530
0.519,0.302,-0.217,-0.411,0.368,0.043,-0.092,0.558,1.010,1.042,0.968,0.672
0.638,0.366,-0.272,-0.502,0.455,0.046,-0.194,0.530,1.069,1.147,1.153,0.801
0.753,0.427,-0.326,-0.590,0.539,0.050,-0.307,0.462,1.081,1.202,1.319,0.930
0.868,0.489,-0.379,-0.678,0.623,0.055,-0.444,0.335,1.008,1.167,1.384,1.035
0.930,0.510,-0.420,-0.720,0.675,0.045,-0.610,0.140,0.815,1.000,1.325,1.065
0.879,0.462,-0.417,-0.671,0.648,0.023,-0.732,-0.071,0.571,0.768,1.287,1.022
0.882,0.425,-0.457,-0.653,0.669,-0.016,-0.814,-0.290,0.259,0.439,1.133,0.985
0.870,0.338,-0.532,-0.603,0.700,-0.097,-0.872,-0.493,-0.057,0.091,0.895,0.899
0.781,0.225,-0.556,-0.503,0.668,-0.165,-0.924,-0.711,-0.376,-0.231,0.664,0.764
0.670,0.190,-0.480,-0.430,0.575,-0.145,-0.975,-0.975,-0.735,-0.540,0.465,0.670
0.518,0.153,-0.365,-0.335,0.442,-0.106,-1.008,-1.188,-1.024,-0.781,0.314,0.599
0.415,0.094,-0.321,-0.254,0.368,-0.114,-1.066,-1.329,-1.211,-0.956,0.179,0.513
0.342,0.027,-0.316,-0.185,0.329,-0.144,-1.079,-1.390,-1.310,-1.068,0.073,0.436
0.258,-0.035,-0.293,-0.112,0.275,-0.164,-1.044,-1.385,-1.317,-1.125,0.004,0.373
0.180,-0.080,-0.260,-0.050,0.220,-0.170,-1.020,-1.335,-1.255,-1.135,-0.060,0.310
0.137,-0.092,-0.229,-0.022,0.183,-0.161,-0.946,-1.230,-1.207,-1.091,-0.126,0.281
0.115,-0.074,-0.189,-0.020,0.152,-0.131,-0.836,-1.079,-1.078,-0.988,-0.137,0.254
0.093,-0.048,-0.141,-0.022,0.117,-0.094,-0.729,-0.928,-0.922,-0.865,-0.128,0.230
0.070,-0.033,-0.103,-0.019,0.087,-0.067,-0.638,-0.799,-0.802,-0.762,-0.131,0.217
0.055,-0.030,-0.085,-0.012,0.070,-0.057,-0.550,-0.680,-0.695,-0.680,-0.130,0.200
0.039,-0.026,-0.065,-0.006,0.052,-0.045,-0.459,-0.570,-0.593,-0.594,-0.126,0.165
0.024,-0.021,-0.045,-0.001,0.035,-0.033,-0.396,-0.480,-0.510,-0.527,-0.124,0.125
0.004,-0.020,-0.024,0.008,0.014,-0.022,-0.342,-0.415,-0.442,-0.472,-0.126,0.100
-0.013,-0.019,-0.007,0.016,-0.003,-0.013,-0.287,-0.361,-0.380,-0.416,-0.123,0.086
-0.015,-0.015,0.000,0.015,-0.007,-0.007,-0.240,-0.305,-0.320,-0.360,-0.115,0.070
-0.014,-0.011,0.004,0.012,-0.009,-0.003,-0.195,-0.249,-0.264,-0.307,-0.111,0.054
-0.021,-0.010,0.011,0.015,-0.016,0.000,-0.157,-0.191,-0.206,-0.264,-0.104,0.037
-0.026,-0.009,0.017,0.017,-0.021,0.004,-0.123,-0.145,-0.161,-0.225,-0.098,0.025
-0.025,-0.004,0.022,0.015,-0.023,0.009,-0.093,-0.112,-0.133,-0.195,-0.093,0.019
-0.030,0.000,0.030,0.015,-0.030,0.015,-0.070,-0.080,-0.105,-0.185,-0.085,0.015
-0.034,0.001,0.035,0.016,-0.035,0.017,-0.049,-0.063,-0.092,-0.173,-0.080,0.007
-0.037,-0.005,0.032,0.021,-0.035,0.013,-0.038,-0.052,-0.085,-0.161,-0.080,0.002
-0.045,-0.016,0.029,0.031,-0.037,0.007,-0.033,-0.037,-0.074,-0.149,-0.080,-0.004
-0.049,-0.019,0.030,0.034,-0.039,0.006,-0.029,-0.021,-0.063,-0.137,-0.080,-0.012
-0.035,-0.005,0.030,0.020,-0.032,0.012,-0.025,-0.010,-0.055,-0.130,-0.080,-0.015
-0.025,0.005,0.030,0.010,-0.028,0.017,-0.017,-0.001,-0.043,-0.126,-0.079,-0.011
-0.033,-0.003,0.031,0.018,-0.032,0.014,-0.012,0.003,-0.034,-0.119,-0.087,-0.010
-0.043,-0.015,0.028,0.029,-0.036,0.006,-0.008,0.009,-0.026,-0.113,-0.089,-0.010
-0.046,-0.022,0.025,0.033,-0.035,0.001,-0.004,0.016,-0.019,-0.108,-0.084,-0.010
-0.055,-0.030,0.025,0.042,-0.040,-0.002,0.000,0.020,-0.015,-0.100,-0.085,-0.010
-0.064,-0.039,0.025,0.051,-0.045,-0.006,0.000,0.028,-0.011,-0.096,-0.085,-0.010
-0.063,-0.038,0.025,0.050,-0.043,-0.006,-0.001,0.034,-0.007,-0.092,-0.085,-0.009
-0.059,-0.034,0.025,0.046,-0.041,-0.005,0.002,0.034,-0.003,-0.090,-0.085,-0.012
-0.060,-0.035,0.025,0.047,-0.042,-0.005,0.005,0.029,0.001,-0.090,-0.085,-0.024
-0.060,-0.035,0.025,0.047,-0.042,-0.005,0.005,0.030,0.005,-0.090,-0.085,-0.035
-0.056,-0.035,0.021,0.045,-0.038,-0.007,0.005,0.042,0.018,-0.090,-0.085,-0.031
-0.055,-0.036,0.020,0.045,-0.037,-0.007,0.004,0.049,0.021,-0.091,-0.085,-0.029
-0.053,-0.033,0.020,0.043,-0.036,-0.006,0.007,0.050,0.020,-0.088,-0.085,-0.030
-0.049,-0.030,0.020,0.040,-0.035,-0.005,0.010,0.050,0.020,-0.085,-0.085,-0.030
-0.050,-0.030,0.020,0.040,-0.035,-0.005,0.010,0.050,0.020,-0.085,-0.085,-0.030
-0.050,-0.030,0.020,0.040,-0.035,-0.005,0.010,0.050,0.020,-0.085,-0.085,-0.030
-0.047,-0.030,0.017,0.038,-0.032,-0.006,0.010,0.050,0.020,-0.085,-0.082,-0.030
-0.044,-0.030,0.014,0.037,-0.029,-0.007,0.012,0.050,0.020,-0.085,-0.079,-0.030
-0.045,-0.030,0.015,0.037,-0.030,-0.007,0.015,0.050,0.020,-0.085,-0.080,-0.029
-0.045,-0.030,0.015,0.037,-0.030,-0.007,0.015,0.050,0.020,-0.085,-0.080,-0.025
-0.041,-0.026,0.015,0.033,-0.028,-0.005,0.015,0.050,0.020,-0.081,-0.080,-0.025
-0.039,-0.025,0.015,0.032,-0.027,-0.005,0.018,0.050,0.020,-0.080,-0.080,-0.025
-0.041,-0.025,0.015,0.032,-0.028,-0.005,0.020,0.050,0.019,-0.080,-0.080,-0.025
-0.039,-0.025,0.014,0.032,-0.026,-0.005,0.020,0.050,0.022,-0.080,-0.080,-0.025
-0.035,-0.025,0.010,0.030,-0.022,-0.007,0.020,0.050,0.030,-0.080,-0.080,-0.025
-0.035,-0.025,0.010,0.030,-0.022,-0.007,0.020,0.050,0.026,-0.080,-0.080,-0.025
-0.033,-0.022,0.011,0.027,-0.021,-0.005,0.023,0.050,0.025,-0.077,-0.080,-0.026
-0.028,-0.019,0.009,0.024,-0.018,-0.005,0.026,0.050,0.023,-0.074,-0.080,-0.023
-0.033,-0.020,0.013,0.026,-0.023,-0.004,0.025,0.050,0.019,-0.075,-0.080,-0.020
-0.045,-0.020,0.025,0.032,-0.035,0.002,0.025,0.050,0.020,-0.075,-0.080,-0.020
-0.038,-0.020,0.018,0.029,-0.028,-0.001,0.025,0.049,0.023,-0.075,-0.076,-0.020
-0.026,-0.020,0.006,0.023,-0.016,-0.006,0.025,0.056,0.035,-0.075,-0.075,-0.020
-0.029,-0.020,0.009,0.025,-0.019,-0.006,0.025,0.061,0.040,-0.075,-0.075,-0.020
-0.043,-0.019,0.024,0.031,-0.034,0.002,0.025,0.060,0.034,-0.075,-0.075,-0.020
-0.050,-0.015,0.035,0.032,-0.042,0.010,0.025,0.060,0.035,-0.075,-0.075,-0.020
-0.046,-0.015,0.031,0.030,-0.038,0.008,0.025,0.060,0.035,-0.084,-0.075,-0.020
-0.044,-0.015,0.029,0.030,-0.036,0.007,0.025,0.060,0.035,-0.083,-0.075,-0.019
-0.045,-0.015,0.030,0.030,-0.037,0.007,0.025,0.060,0.035,-0.079,-0.075,-0.022
-0.045,-0.015,0.030,0.030,-0.037,0.007,0.025,0.060,0.035,-0.080,-0.075,-0.025
-0.045,-0.015,0.030,0.030,-0.037,0.007,0.025,0.060,0.035,-0.080,-0.075,-0.025
-0.046,-0.016,0.030,0.031,-0.037,0.007,0.025,0.064,0.035,-0.080,-0.075,-0.025
-0.040,-0.010,0.030,0.025,-0.035,0.010,0.025,0.066,0.035,-0.080,-0.075,-0.025
-0.048,-0.018,0.030,0.033,-0.039,0.006,0.025,0.063,0.035,-0.080,-0.075,-0.025
-0.061,-0.031,0.030,0.046,-0.045,-0.001,0.025,0.060,0.035,-0.080,-0.075,-0.025
-0.055,-0.025,0.030,0.040,-0.042,0.002,0.025,0.060,0.035,-0.080,-0.075,-0.025
-0.055,-0.025,0.030,0.040,-0.042,0.002,0.024,0.060,0.035,-0.080,-0.075,-0.025
-0.052,-0.025,0.027,0.038,-0.039,0.001,0.031,0.060,0.035,-0.080,-0.075,-0.025
-0.049,-0.025,0.024,0.037,-0.036,0.000,0.038,0.059,0.034,-0.080,-0.075,-0.025
-0.050,-0.025,0.025,0.037,-0.037,0.000,0.040,0.063,0.037,-0.080,-0.075,-0.025
-0.050,-0.025,0.025,0.037,-0.037,0.000,0.040,0.075,0.050,-0.080,-0.075,-0.025
-0.050,-0.025,0.025,0.037,-0.037,0.000,0.040,0.071,0.051,-0.080,-0.075,-0.025
-0.051,-0.026,0.025,0.038,-0.037,0.000,0.040,0.069,0.050,-0.080,-0.075,-0.025
-0.048,-0.023,0.025,0.035,-0.036,0.001,0.040,0.070,0.050,-0.080,-0.075,-0.025
-0.045,-0.020,0.025,0.032,-0.035,0.002,0.040,0.070,0.050,-0.080,-0.075,-0.025
-0.045,-0.020,0.025,0.032,-0.035,0.002,0.040,0.070,0.050,-0.080,-0.075,-0.025
-0.045,-0.020,0.025,0.032,-0.035,0.002,0.040,0.070,0.050,-0.080,-0.075,-0.025
-0.046,-0.020,0.026,0.032,-0.036,0.003,0.040,0.070,0.050,-0.080,-0.074,-0.025
-0.041,-0.020,0.021,0.030,-0.031,0.000,0.040,0.070,0.050,-0.080,-0.077,-0.025
-0.025,-0.020,0.005,0.023,-0.015,-0.007,0.039,0.069,0.050,-0.080,-0.080,-0.025
-0.015,-0.020,-0.005,0.018,-0.005,-0.012,0.040,0.070,0.050,-0.080,-0.080,-0.025
-0.034,-0.021,0.014,0.028,-0.024,-0.003,0.052,0.082,0.050,-0.080,-0.080,-0.021
-0.050,-0.015,0.035,0.032,-0.043,0.010,0.059,0.089,0.050,-0.080,-0.081,-0.018
-0.046,-0.006,0.039,0.026,-0.042,0.017,0.060,0.090,0.050,-0.080,-0.078,-0.026
-0.040,-0.006,0.034,0.023,-0.037,0.014,0.060,0.090,0.050,-0.079,-0.075,-0.035
-0.050,-0.015,0.035,0.032,-0.042,0.010,0.060,0.090,0.050,-0.075,-0.075,-0.030
-0.059,-0.024,0.035,0.041,-0.047,0.005,0.060,0.090,0.050,-0.075,-0.075,-0.030
-0.057,-0.023,0.035,0.039,-0.046,0.006,0.060,0.090,0.051,-0.076,-0.075,-0.030
-0.054,-0.019,0.035,0.036,-0.045,0.007,0.060,0.090,0.048,-0.073,-0.075,-0.030
-0.055,-0.020,0.035,0.037,-0.045,0.007,0.060,0.090,0.044,-0.070,-0.075,-0.030
-0.055,-0.020,0.035,0.037,-0.045,0.007,0.060,0.090,0.045,-0.070,-0.075,-0.030
-0.055,-0.020,0.035,0.037,-0.045,0.007,0.060,0.090,0.048,-0.070,-0.075,-0.030
-0.052,-0.017,0.035,0.034,-0.043,0.009,0.060,0.090,0.057,-0.070,-0.072,-0.030
-0.049,-0.014,0.035,0.031,-0.042,0.010,0.060,0.089,0.061,-0.068,-0.069,-0.030
-0.050,-0.015,0.035,0.032,-0.042,0.010,0.060,0.092,0.060,-0.065,-0.070,-0.030
-0.050,-0.015,0.035,0.032,-0.042,0.010,0.060,0.100,0.060,-0.065,-0.070,-0.030
-0.050,-0.015,0.035,0.032,-0.042,0.010,0.060,0.101,0.060,-0.065,-0.070,-0.030
-0.050,-0.016,0.035,0.032,-0.042,0.010,0.060,0.098,0.059,-0.062,-0.070,-0.031
-0.048,-0.013,0.035,0.030,-0.042,0.011,0.060,0.105,0.063,-0.060,-0.070,-0.028
-0.044,-0.010,0.034,0.026,-0.039,0.012,0.060,0.117,0.072,-0.060,-0.070,-0.025
-0.045,-0.010,0.035,0.027,-0.040,0.012,0.060,0.120,0.075,-0.060,-0.070,-0.025
-0.058,-0.010,0.048,0.034,-0.053,0.019,0.060,0.121,0.075,-0.060,-0.066,-0.025
-0.059,-0.011,0.048,0.034,-0.053,0.018,0.060,0.115,0.075,-0.057,-0.065,-0.025
-0.053,-0.008,0.044,0.030,-0.048,0.018,0.060,0.120,0.075,-0.055,-0.065,-0.025
-0.049,-0.005,0.044,0.026,-0.046,0.020,0.060,0.131,0.075,-0.055,-0.065,-0.025
-0.045,-0.005,0.040,0.025,-0.042,0.017,0.060,0.130,0.075,-0.055,-0.065,-0.025
-0.045,-0.005,0.040,0.025,-0.042,0.017,0.060,0.129,0.074,-0.056,-0.065,-0.025
-0.046,-0.005,0.041,0.025,-0.043,0.017,0.062,0.135,0.086,-0.049,-0.065,-0.025
-0.043,-0.005,0.038,0.024,-0.040,0.016,0.068,0.145,0.103,-0.042,-0.065,-0.025
-0.039,-0.004,0.035,0.021,-0.036,0.015,0.070,0.150,0.111,-0.039,-0.065,-0.025
-0.035,0.000,0.035,0.017,-0.035,0.017,0.070,0.150,0.110,-0.035,-0.065,-0.025
-0.032,0.004,0.035,0.013,-0.034,0.020,0.078,0.163,0.110,-0.031,-0.061,-0.025
-0.023,0.008,0.032,0.007,-0.028,0.020,0.081,0.162,0.109,-0.027,-0.060,-0.022
-0.019,0.011,0.029,0.004,-0.024,0.020,0.079,0.164,0.112,-0.023,-0.058,-0.019
-0.012,0.019,0.030,-0.003,-0.022,0.024,0.080,0.178,0.124,-0.019,-0.054,-0.020
0.005,0.035,0.030,-0.020,-0.013,0.032,0.085,0.185,0.135,-0.015,-0.055,-0.020
0.010,0.036,0.026,-0.023,-0.008,0.031,0.093,0.188,0.130,-0.011,-0.055,-0.016
0.010,0.035,0.025,-0.023,-0.008,0.030,0.098,0.198,0.137,-0.007,-0.052,-0.015
0.011,0.035,0.024,-0.024,-0.007,0.030,0.104,0.211,0.153,-0.003,-0.049,-0.015
0.008,0.035,0.027,-0.022,-0.010,0.031,0.111,0.215,0.160,0.001,-0.050,-0.015
-0.005,0.035,0.040,-0.015,-0.023,0.037,0.110,0.215,0.160,0.005,-0.050,-0.015
-0.018,0.035,0.053,-0.009,-0.036,0.044,0.110,0.228,0.173,0.004,-0.046,-0.011
-0.019,0.035,0.054,-0.008,-0.037,0.044,0.110,0.230,0.175,0.010,-0.044,-0.009
-0.010,0.035,0.045,-0.013,-0.028,0.040,0.110,0.233,0.180,0.019,-0.046,-0.011
-0.014,0.034,0.048,-0.010,-0.032,0.041,0.110,0.242,0.193,0.027,-0.044,-0.009
-0.030,0.035,0.065,-0.003,-0.048,0.050,0.115,0.255,0.200,0.035,-0.040,-0.005
-0.006,0.052,0.058,-0.024,-0.033,0.055,0.136,0.276,0.208,0.044,-0.040,-0.005
0.004,0.054,0.050,-0.029,-0.023,0.052,0.139,0.283,0.215,0.043,-0.039,-0.005
-0.005,0.047,0.052,-0.021,-0.029,0.049,0.133,0.277,0.213,0.038,-0.045,-0.006
-0.019,0.054,0.073,-0.018,-0.046,0.063,0.138,0.285,0.219,0.043,-0.049,-0.004
-0.030,0.075,0.105,-0.023,-0.068,0.090,0.150,0.310,0.240,0.060,-0.040,0.005
-0.018,0.088,0.107,-0.035,-0.063,0.097,0.154,0.309,0.244,0.063,-0.036,0.009
-0.010,0.094,0.104,-0.042,-0.058,0.099,0.161,0.325,0.257,0.077,-0.029,0.012
-0.010,0.095,0.105,-0.043,-0.058,0.100,0.168,0.337,0.268,0.089,-0.023,0.019
-0.010,0.095,0.105,-0.043,-0.058,0.100,0.170,0.336,0.272,0.091,-0.018,0.026
-0.010,0.095,0.105,-0.043,-0.058,0.100,0.170,0.345,0.280,0.095,-0.010,0.030
-0.003,0.102,0.105,-0.050,-0.054,0.104,0.170,0.344,0.279,0.094,-0.006,0.034
0.010,0.115,0.105,-0.063,-0.048,0.110,0.171,0.354,0.288,0.103,0.001,0.037
0.017,0.121,0.104,-0.069,-0.044,0.112,0.168,0.362,0.301,0.115,0.009,0.046
0.014,0.112,0.098,-0.063,-0.042,0.104,0.165,0.359,0.304,0.122,0.017,0.056
0.015,0.110,0.095,-0.063,-0.040,0.102,0.165,0.360,0.300,0.125,0.025,0.060
0.029,0.144,0.115,-0.087,-0.043,0.130,0.161,0.367,0.310,0.123,0.033,0.072
0.023,0.148,0.125,-0.086,-0.051,0.137,0.159,0.384,0.329,0.138,0.042,0.080
0.026,0.151,0.125,-0.089,-0.050,0.138,0.161,0.390,0.335,0.145,0.046,0.080
0.043,0.167,0.124,-0.105,-0.041,0.146,0.159,0.383,0.329,0.139,0.045,0.081
0.045,0.165,0.120,-0.105,-0.038,0.142,0.155,0.380,0.330,0.140,0.045,0.085
0.048,0.164,0.116,-0.106,-0.035,0.140,0.155,0.380,0.326,0.140,0.045,0.084
0.060,0.171,0.111,-0.116,-0.026,0.141,0.152,0.378,0.325,0.140,0.045,0.095
0.066,0.176,0.110,-0.121,-0.022,0.142,0.149,0.372,0.323,0.139,0.046,0.100
0.065,0.175,0.109,-0.120,-0.023,0.142,0.151,0.370,0.320,0.143,0.053,0.102
0.070,0.175,0.105,-0.123,-0.018,0.140,0.150,0.370,0.320,0.155,0.065,0.115
0.075,0.175,0.101,-0.125,-0.013,0.138,0.142,0.362,0.316,0.152,0.070,0.120
0.074,0.174,0.100,-0.124,-0.014,0.136,0.136,0.354,0.315,0.147,0.071,0.120
0.081,0.179,0.099,-0.130,-0.010,0.139,0.133,0.346,0.313,0.143,0.069,0.121
0.092,0.185,0.094,-0.139,-0.001,0.139,0.129,0.338,0.310,0.139,0.073,0.128
0.090,0.180,0.090,-0.135,0.000,0.135,0.125,0.330,0.310,0.135,0.085,0.140
0.086,0.176,0.090,-0.131,-0.003,0.133,0.121,0.321,0.303,0.130,0.081,0.137
0.085,0.172,0.087,-0.129,-0.001,0.129,0.118,0.318,0.293,0.131,0.080,0.132
0.083,0.168,0.085,-0.126,-0.001,0.126,0.110,0.309,0.288,0.127,0.078,0.128
0.080,0.164,0.084,-0.122,-0.003,0.124,0.097,0.298,0.284,0.119,0.075,0.125
0.080,0.160,0.080,-0.120,0.000,0.120,0.090,0.290,0.275,0.115,0.075,0.125
0.076,0.156,0.080,-0.116,-0.003,0.118,0.083,0.278,0.266,0.107,0.071,0.121
0.075,0.152,0.077,-0.114,-0.001,0.114,0.071,0.269,0.263,0.102,0.069,0.116
0.073,0.148,0.075,-0.111,-0.001,0.111,0.061,0.258,0.253,0.096,0.071,0.115
0.069,0.144,0.075,-0.107,-0.003,0.109,0.053,0.241,0.237,0.089,0.069,0.114
0.070,0.140,0.070,-0.105,0.000,0.105,0.045,0.225,0.225,0.085,0.065,0.110
0.071,0.136,0.066,-0.104,0.002,0.101,0.041,0.209,0.209,0.081,0.065,0.106
0.067,0.132,0.065,-0.100,0.001,0.098,0.037,0.192,0.195,0.077,0.062,0.105
0.065,0.128,0.064,-0.097,0.000,0.095,0.033,0.180,0.186,0.073,0.060,0.103
0.065,0.123,0.059,-0.094,0.002,0.091,0.029,0.173,0.178,0.069,0.059,0.099
0.060,0.115,0.055,-0.088,0.002,0.085,0.025,0.165,0.170,0.065,0.055,0.095
0.055,0.111,0.055,-0.084,0.000,0.083,0.025,0.157,0.166,0.061,0.055,0.091
0.056,0.108,0.052,-0.082,0.002,0.079,0.022,0.149,0.160,0.058,0.056,0.090
0.051,0.101,0.050,-0.076,0.000,0.075,0.018,0.141,0.150,0.051,0.053,0.089
0.044,0.094,0.049,-0.069,-0.003,0.071,0.014,0.134,0.144,0.044,0.049,0.084
0.045,0.090,0.045,-0.068,0.000,0.067,0.010,0.130,0.140,0.040,0.045,0.080
0.041,0.086,0.045,-0.064,-0.002,0.065,0.006,0.122,0.132,0.036,0.041,0.080
0.036,0.082,0.046,-0.060,-0.005,0.064,0.005,0.113,0.124,0.029,0.037,0.078
0.035,0.078,0.043,-0.057,-0.004,0.060,0.005,0.108,0.116,0.022,0.033,0.072
0.034,0.074,0.040,-0.054,-0.003,0.056,0.005,0.103,0.108,0.019,0.030,0.070
0.030,0.070,0.040,-0.050,-0.005,0.055,0.005,0.095,0.100,0.015,0.030,0.070
0.030,0.066,0.036,-0.049,-0.003,0.051,0.014,0.087,0.092,0.011,0.026,0.066
0.027,0.061,0.034,-0.045,-0.004,0.048,0.013,0.082,0.084,0.007,0.025,0.064
0.024,0.060,0.036,-0.043,-0.005,0.047,0.009,0.078,0.078,0.003,0.023,0.066
0.025,0.059,0.034,-0.043,-0.005,0.046,0.010,0.074,0.074,-0.001,0.020,0.064
0.025,0.055,0.030,-0.040,-0.003,0.042,0.010,0.070,0.070,-0.005,0.020,0.060
0.025,0.055,0.030,-0.040,-0.003,0.042,0.006,0.066,0.066,-0.005,0.016,0.060
0.025,0.052,0.027,-0.039,-0.001,0.039,0.004,0.061,0.065,-0.008,0.015,0.061
0.026,0.050,0.024,-0.038,0.001,0.037,0.006,0.060,0.064,-0.012,0.013,0.058
0.024,0.049,0.025,-0.037,-0.001,0.037,0.004,0.059,0.059,-0.016,0.010,0.055
0.020,0.045,0.025,-0.033,-0.003,0.035,0.000,0.055,0.055,-0.020,0.010,0.055
0.024,0.045,0.021,-0.035,0.001,0.033,0.000,0.051,0.055,-0.025,0.006,0.055
0.022,0.042,0.019,-0.032,0.001,0.030,0.001,0.047,0.053,-0.024,0.005,0.052
0.019,0.040,0.021,-0.030,-0.001,0.030,-0.002,0.043,0.047,-0.029,0.003,0.049
0.020,0.039,0.019,-0.030,0.000,0.029,-0.005,0.040,0.045,-0.036,0.000,0.050
0.020,0.035,0.015,-0.028,0.002,0.025,-0.005,0.040,0.045,-0.035,0.000,0.050
0.020,0.035,0.015,-0.028,0.002,0.025,-0.005,0.036,0.041,-0.035,-0.004,0.046
0.017,0.032,0.015,-0.025,0.001,0.023,-0.008,0.035,0.040,-0.037,-0.006,0.044
0.015,0.030,0.015,-0.023,0.000,0.022,-0.011,0.033,0.038,-0.045,-0.004,0.046
0.014,0.029,0.015,-0.022,0.000,0.022,-0.010,0.029,0.035,-0.050,-0.006,0.044
0.010,0.025,0.015,-0.018,-0.003,0.020,-0.010,0.030,0.035,-0.045,-0.010,0.040
0.010,0.025,0.015,-0.018,-0.003,0.020,-0.014,0.030,0.031,-0.045,-0.010,0.040
0.006,0.022,0.016,-0.015,-0.005,0.018,-0.016,0.027,0.029,-0.045,-0.009,0.041
0.006,0.019,0.013,-0.013,-0.003,0.016,-0.014,0.024,0.031,-0.045,-0.012,0.038
0.011,0.020,0.010,-0.015,0.000,0.015,-0.016,0.025,0.029,-0.045,-0.015,0.035
0.010,0.020,0.010,-0.015,0.000,0.015,-0.020,0.025,0.025,-0.045,-0.015,0.035
0.010,0.020,0.010,-0.015,0.000,0.015,-0.020,0.021,0.025,-0.045,-0.015,0.035
0.010,0.020,0.010,-0.015,0.000,0.015,-0.020,0.019,0.022,-0.044,-0.018,0.036
0.010,0.020,0.010,-0.015,0.000,0.015,-0.020,0.021,0.020,-0.048,-0.021,0.033
0.010,0.020,0.010,-0.015,0.000,0.015,-0.019,0.019,0.019,-0.057,-0.020,0.030
0.010,0.020,0.010,-0.015,0.000,0.015,-0.015,0.015,0.015,-0.060,-0.020,0.030
0.010,0.020,0.010,-0.015,0.000,0.015,-0.015,0.015,0.015,-0.060,-0.028,0.030
0.013,0.020,0.007,-0.017,0.003,0.013,-0.015,0.012,0.016,-0.060,-0.034,0.030
0.015,0.020,0.004,-0.018,0.005,0.012,-0.015,0.009,0.013,-0.060,-0.035,0.030
0.015,0.020,0.005,-0.018,0.005,0.012,-0.015,0.010,0.010,-0.060,-0.036,0.029
0.015,0.020,0.005,-0.018,0.005,0.012,-0.015,0.010,0.010,-0.060,-0.045,0.025
0.011,0.016,0.005,-0.014,0.003,0.010,-0.015,0.006,0.010,-0.060,-0.050,0.025
0.010,0.015,0.005,-0.013,0.002,0.010,-0.015,0.004,0.010,-0.060,-0.050,0.025
0.010,0.015,0.005,-0.013,0.002,0.010,-0.015,0.006,0.010,-0.060,-0.050,0.025
0.010,0.015,0.005,-0.013,0.002,0.010,-0.015,0.004,0.010,-0.060,-0.050,0.025
0.010,0.015,0.005,-0.013,0.002,0.010,-0.015,0.000,0.010,-0.060,-0.050,0.025
0.011,0.015,0.004,-0.014,0.003,0.009,-0.015,0.000,0.010,-0.060,-0.050,0.025
0.000,0.015,0.015,-0.008,-0.008,0.015,-0.016,0.000,0.007,-0.060,-0.050,0.022
-0.005,0.015,0.020,-0.005,-0.013,0.017,-0.013,0.002,0.004,-0.060,-0.050,0.019
0.001,0.015,0.014,-0.008,-0.007,0.015,-0.010,0.005,0.005,-0.060,-0.050,0.020
0.000,0.015,0.015,-0.008,-0.008,0.015,-0.010,0.005,0.005,-0.060,-0.050,0.020
0.000,0.015,0.015,-0.008,-0.008,0.015,-0.010,0.005,0.005,-0.060,-0.050,0.020
0.000,0.015,0.015,-0.008,-0.008,0.015,-0.010,0.005,0.005,-0.058,-0.050,0.021
0.001,0.016,0.015,-0.009,-0.008,0.015,-0.010,0.005,0.005,-0.066,-0.050,0.018
-0.002,0.013,0.015,-0.006,-0.009,0.014,-0.010,0.006,0.005,-0.075,-0.050,0.015
-0.005,0.010,0.015,-0.003,-0.010,0.012,-0.010,0.010,0.005,-0.070,-0.050,0.015
0.008,0.023,0.015,-0.016,-0.004,0.019,-0.010,0.010,0.001,-0.070,-0.050,0.015
0.008,0.023,0.015,-0.016,-0.004,0.019,-0.010,0.010,0.000,-0.071,-0.051,0.015
0.004,0.019,0.015,-0.012,-0.005,0.017,-0.010,0.010,0.000,-0.068,-0.048,0.015
0.004,0.019,0.015,-0.012,-0.005,0.017,-0.010,0.010,0.000,-0.065,-0.045,0.015
0.000,0.015,0.015,-0.008,-0.008,0.015,-0.010,0.010,0.000,-0.065,-0.045,0.015
0.000,0.015,0.015,-0.008,-0.008,0.015,-0.009,0.010,0.000,-0.065,-0.045,0.015
-0.003,0.012,0.015,-0.005,-0.009,0.013,-0.020,0.013,0.000,-0.062,-0.045,0.015
-0.006,0.009,0.015,-0.002,-0.010,0.011,-0.025,0.016,0.000,-0.059,-0.045,0.015
-0.003,0.012,0.015,-0.005,-0.009,0.013,-0.019,0.015,0.000,-0.060,-0.045,0.015
0.010,0.025,0.015,-0.018,-0.003,0.020,-0.020,0.015,0.000,-0.060,-0.045,0.015
0.028,0.039,0.010,-0.034,0.009,0.024,-0.021,0.015,0.004,-0.056,-0.045,0.015
0.026,0.038,0.012,-0.032,0.007,0.025,-0.017,0.014,0.005,-0.054,-0.042,0.015
0.032,0.034,0.002,-0.033,0.014,0.018,-0.014,0.017,0.007,-0.056,-0.039,0.015
0.028,0.035,0.007,-0.032,0.010,0.021,-0.015,0.020,0.011,-0.054,-0.040,0.015
-0.010,0.035,0.045,-0.013,-0.028,0.040,-0.015,0.020,0.010,-0.050,-0.040,0.015
-0.008,0.035,0.043,-0.014,-0.026,0.039,-0.011,0.020,0.009,-0.050,-0.040,0.015
-0.003,0.035,0.038,-0.016,-0.021,0.036,-0.009,0.020,0.013,-0.051,-0.040,0.015
-0.006,0.035,0.041,-0.015,-0.024,0.037,-0.011,0.020,0.015,-0.048,-0.040,0.015
-0.005,0.035,0.040,-0.015,-0.023,0.037,-0.009,0.020,0.016,-0.045,-0.040,0.015
-0.005,0.035,0.040,-0.015,-0.023,0.037,-0.005,0.020,0.020,-0.045,-0.040,0.015
-0.005,0.035,0.040,-0.015,-0.023,0.037,-0.005,0.020,0.020,-0.045,-0.036,0.015
-0.004,0.036,0.040,-0.016,-0.023,0.037,-0.006,0.021,0.019,-0.042,-0.035,0.015
-0.007,0.033,0.040,-0.013,-0.024,0.036,-0.003,0.017,0.022,-0.040,-0.035,0.015
-0.010,0.030,0.040,-0.010,-0.025,0.035,0.000,0.017,0.025,-0.040,-0.035,0.015
-0.010,0.030,0.040,-0.010,-0.025,0.035,0.000,0.030,0.025,-0.040,-0.035,0.015
-0.010,0.030,0.040,-0.010,-0.025,0.035,0.000,0.035,0.029,-0.040,-0.035,0.015
-0.010,0.030,0.040,-0.010,-0.025,0.035,0.003,0.035,0.031,-0.037,-0.035,0.015
-0.010,0.030,0.040,-0.010,-0.025,0.035,0.006,0.035,0.029,-0.034,-0.035,0.015
-0.009,0.030,0.039,-0.010,-0.024,0.035,0.005,0.035,0.031,-0.035,-0.035,0.015
-0.005,0.030,0.035,-0.013,-0.020,0.032,0.005,0.035,0.035,-0.035,-0.035,0.015
-0.005,0.030,0.035,-0.013,-0.020,0.032,0.009,0.035,0.035,-0.031,-0.039,0.015
-0.005,0.030,0.035,-0.013,-0.020,0.032,0.010,0.034,0.034,-0.030,-0.040,0.016
-0.005,0.030,0.035,-0.013,-0.020,0.032,0.010,0.037,0.037,-0.030,-0.040,0.013
-0.005,0.030,0.035,-0.013,-0.020,0.032,0.010,0.040,0.040,-0.030,-0.040,0.010
-0.005,0.030,0.035,-0.013,-0.020,0.032,0.010,0.040,0.040,-0.030,-0.040,0.010
-0.005,0.030,0.035,-0.013,-0.020,0.032,0.006,0.040,0.040,-0.026,-0.036,0.010
-0.005,0.030,0.035,-0.013,-0.020,0.032,0.005,0.040,0.040,-0.025,-0.034,0.010
-0.005,0.030,0.035,-0.013,-0.020,0.032,0.005,0.040,0.040,-0.025,-0.036,0.010
-0.005,0.030,0.035,-0.013,-0.020,0.032,0.005,0.040,0.040,-0.025,-0.034,0.009
-0.005,0.030,0.035,-0.013,-0.020,0.032,0.005,0.040,0.040,-0.025,-0.030,0.005
-0.005,0.030,0.035,-0.013,-0.020,0.032,0.005,0.040,0.040,-0.021,-0.030,0.005
-0.005,0.030,0.035,-0.013,-0.020,0.032,0.005,0.040,0.040,-0.019,-0.030,0.005
-0.005,0.030,0.035,-0.013,-0.020,0.032,0.005,0.040,0.040,-0.021,-0.030,0.005
-0.004,0.030,0.034,-0.013,-0.019,0.032,0.005,0.040,0.040,-0.019,-0.029,0.005
-0.005,0.030,0.035,-0.013,-0.020,0.032,0.005,0.040,0.040,-0.015,-0.025,0.005
-0.018,0.030,0.048,-0.006,-0.033,0.039,0.005,0.049,0.040,-0.015,-0.025,0.013
-0.020,0.028,0.048,-0.004,-0.034,0.038,0.005,0.048,0.040,-0.015,-0.025,0.016
-0.008,0.036,0.044,-0.015,-0.026,0.040,0.005,0.044,0.040,-0.015,-0.025,0.014
0.000,0.045,0.045,-0.023,-0.023,0.045,0.005,0.045,0.040,-0.014,-0.024,0.017
-0.010,0.035,0.045,-0.013,-0.028,0.040,0.005,0.045,0.040,-0.010,-0.020,0.025
-0.022,0.023,0.045,-0.001,-0.034,0.034,0.005,0.045,0.040,-0.010,-0.020,0.021
0.002,0.044,0.042,-0.023,-0.021,0.042,0.005,0.042,0.039,-0.010,-0.021,0.019
0.017,0.057,0.039,-0.037,-0.012,0.048,0.005,0.039,0.042,-0.010,-0.018,0.020
0.009,0.049,0.040,-0.029,-0.016,0.044,0.005,0.040,0.045,-0.010,-0.015,0.020
0.010,0.050,0.040,-0.030,-0.015,0.045,0.005,0.040,0.040,-0.010,-0.015,0.020
0.010,0.051,0.040,-0.030,-0.015,0.045,0.005,0.040,0.040,-0.018,-0.015,0.020
0.010,0.047,0.037,-0.029,-0.014,0.042,0.006,0.037,0.041,-0.024,-0.015,0.020
0.010,0.044,0.034,-0.028,-0.013,0.039,0.003,0.034,0.038,-0.025,-0.013,0.020
0.010,0.045,0.035,-0.028,-0.013,0.040,0.000,0.035,0.035,-0.025,-0.010,0.019
0.010,0.045,0.035,-0.028,-0.013,0.040,0.000,0.035,0.035,-0.025,-0.010,0.015
0.006,0.041,0.035,-0.024,-0.015,0.037,0.000,0.035,0.035,-0.025,-0.010,0.015
0.004,0.039,0.036,-0.022,-0.016,0.037,-0.003,0.036,0.036,-0.025,-0.008,0.015
0.007,0.041,0.033,-0.024,-0.013,0.037,-0.006,0.033,0.033,-0.025,-0.016,0.015
0.010,0.039,0.030,-0.024,-0.010,0.034,-0.005,0.030,0.030,-0.025,-0.026,0.015
0.005,0.035,0.030,-0.020,-0.013,0.032,-0.005,0.030,0.030,-0.025,-0.025,0.015
0.005,0.035,0.030,-0.020,-0.013,0.032,-0.009,0.030,0.030,-0.025,-0.025,0.015
0.005,0.036,0.031,-0.020,-0.013,0.033,-0.010,0.031,0.030,-0.025,-0.025,0.016
0.005,0.033,0.028,-0.019,-0.012,0.030,-0.010,0.028,0.028,-0.025,-0.025,0.013
0.005,0.030,0.025,-0.018,-0.010,0.027,-0.010,0.025,0.025,-0.025,-0.025,0.010
0.005,0.030,0.025,-0.018,-0.010,0.027,-0.010,0.025,0.025,-0.025,-0.025,0.010
0.005,0.030,0.025,-0.018,-0.010,0.027,-0.010,0.025,0.025,-0.025,-0.025,0.010
0.002,0.027,0.025,-0.015,-0.012,0.026,-0.010,0.025,0.022,-0.025,-0.025,0.010
0.000,0.024,0.024,-0.013,-0.012,0.024,-0.010,0.025,0.020,-0.025,-0.025,0.010
-0.001,0.025,0.027,-0.012,-0.015,0.026,-0.010,0.024,0.020,-0.026,-0.025,0.010
-0.010,0.025,0.035,-0.008,-0.023,0.030,-0.010,0.020,0.020,-0.030,-0.025,0.010
-0.011,0.021,0.032,-0.005,-0.021,0.026,-0.010,0.020,0.020,-0.030,-0.025,0.010
-0.007,0.020,0.026,-0.007,-0.016,0.023,-0.010,0.020,0.017,-0.030,-0.025,0.011
-0.005,0.020,0.025,-0.008,-0.015,0.022,-0.010,0.020,0.014,-0.030,-0.025,0.007
-0.004,0.020,0.024,-0.008,-0.014,0.022,-0.010,0.019,0.015,-0.030,-0.025,0.007
0.000,0.020,0.020,-0.010,-0.010,0.020,-0.010,0.015,0.015,-0.030,-0.025,0.020
-0.003,0.012,0.016,-0.005,-0.009,0.014,-0.010,0.015,0.015,-0.030,-0.025,0.017
-0.010,0.005,0.015,0.002,-0.013,0.009,-0.010,0.015,0.012,-0.033,-0.028,0.014
-0.006,0.010,0.016,-0.002,-0.011,0.013,-0.010,0.015,0.009,-0.035,-0.030,0.015
-0.001,0.022,0.023,-0.011,-0.012,0.023,-0.010,0.014,0.010,-0.035,-0.030,0.015
0.000,0.030,0.030,-0.015,-0.015,0.030,-0.010,0.010,0.010,-0.035,-0.030,0.015
0.028,0.042,0.014,-0.035,0.007,0.028,-0.009,0.010,0.010,-0.034,-0.029,0.015
0.011,0.053,0.042,-0.032,-0.016,0.047,-0.020,0.010,0.010,-0.045,-0.037,0.015
-0.010,0.054,0.064,-0.022,-0.037,0.058,-0.025,0.010,0.010,-0.050,-0.039,0.015
-0.003,0.050,0.053,-0.024,-0.028,0.051,-0.019,0.010,0.010,-0.044,-0.034,0.014
0.000,0.050,0.050,-0.025,-0.025,0.050,-0.020,0.010,0.010,-0.045,-0.035,0.010
-0.005,0.046,0.050,-0.021,-0.028,0.048,-0.020,0.006,0.006,-0.045,-0.035,0.010
-0.002,0.044,0.047,-0.021,-0.025,0.045,-0.020,0.005,0.005,-0.045,-0.035,0.010
0.001,0.046,0.045,-0.024,-0.023,0.045,-0.020,0.005,0.005,-0.043,-0.035,0.010
0.000,0.044,0.045,-0.022,-0.023,0.044,-0.020,0.005,0.005,-0.040,-0.034,0.010
0.000,0.040,0.040,-0.020,-0.020,0.040,-0.020,0.005,0.005,-0.040,-0.030,0.010
0.004,0.040,0.036,-0.022,-0.016,0.037,-0.020,0.001,0.005,-0.040,-0.030,0.010
0.005,0.041,0.035,-0.024,-0.015,0.037,-0.017,0.000,0.005,-0.041,-0.030,0.011
0.005,0.038,0.033,-0.022,-0.015,0.035,-0.014,0.000,0.005,-0.038,-0.030,0.008
0.005,0.035,0.029,-0.020,-0.012,0.031,-0.015,0.000,0.004,-0.035,-0.030,0.005
0.005,0.035,0.030,-0.020,-0.013,0.032,-0.015,0.000,0.000,-0.035,-0.030,0.005
-0.003,0.036,0.039,-0.016,-0.022,0.037,-0.015,0.000,0.000,-0.035,-0.030,0.005
-0.006,0.032,0.038,-0.013,-0.022,0.034,-0.015,0.003,0.000,-0.035,-0.027,0.005
-0.005,0.030,0.035,-0.013,-0.020,0.032,-0.015,0.006,0.000,-0.035,-0.024,0.005
-0.005,0.030,0.034,-0.013,-0.020,0.032,-0.015,0.005,0.000,-0.034,-0.025,0.005
0.000,0.030,0.030,-0.015,-0.015,0.030,-0.015,0.005,0.000,-0.030,-0.025,0.005
0.009,0.039,0.030,-0.024,-0.010,0.034,-0.011,0.005,0.000,-0.030,-0.025,0.005
0.007,0.038,0.031,-0.022,-0.012,0.034,-0.010,0.005,0.000,-0.030,-0.026,0.005
0.006,0.034,0.028,-0.020,-0.012,0.031,-0.010,0.005,0.000,-0.030,-0.023,0.004
0.011,0.035,0.025,-0.023,-0.007,0.030,-0.010,0.005,0.001,-0.029,-0.020,-0.001
0.010,0.035,0.025,-0.023,-0.008,0.030,-0.010,0.005,0.005,-0.025,-0.020,-0.005
0.010,0.035,0.025,-0.023,-0.008,0.030,-0.010,0.005,0.005,-0.025,-0.020,-0.001
0.010,0.032,0.022,-0.021,-0.006,0.027,-0.010,0.005,0.005,-0.025,-0.020,0.003
0.010,0.029,0.019,-0.020,-0.005,0.024,-0.010,0.005,0.004,-0.025,-0.020,0.007
0.010,0.030,0.020,-0.020,-0.005,0.025,-0.010,0.005,0.008,-0.025,-0.020,0.011
0.010,0.030,0.020,-0.020,-0.005,0.025,-0.010,0.005,0.020,-0.025,-0.020,0.010
0.015,0.030,0.016,-0.023,0.000,0.023,-0.014,0.005,0.016,-0.029,-0.029,0.006
0.012,0.027,0.015,-0.020,-0.002,0.021,-0.016,0.005,0.014,-0.034,-0.028,0.005
0.011,0.024,0.013,-0.018,-0.002,0.019,-0.013,0.005,0.015,-0.035,-0.024,0.005
0.016,0.025,0.009,-0.020,0.003,0.017,-0.010,0.004,0.015,-0.035,-0.025,0.005
0.015,0.025,0.010,-0.020,0.002,0.017,-0.010,0.000,0.015,-0.035,-0.025,0.005
0.014,0.025,0.010,-0.020,0.001,0.017,-0.010,0.000,0.015,-0.035,-0.025,0.005
0.019,0.026,0.007,-0.022,0.005,0.016,-0.010,0.000,0.012,-0.038,-0.025,0.002
0.019,0.023,0.004,-0.021,0.007,0.014,-0.010,0.000,0.009,-0.041,-0.024,-0.001
0.014,0.020,0.005,-0.017,0.005,0.012,-0.010,0.000,0.010,-0.040,-0.028,0.000
0.015,0.020,0.005,-0.018,0.005,0.012,-0.010,0.000,0.010,-0.040,-0.040,0.000
0.019,0.020,0.001,-0.020,0.009,0.010,-0.010,0.000,0.010,-0.040,-0.036,0.000
0.021,0.021,0.000,-0.021,0.011,0.010,-0.010,0.000,0.010,-0.040,-0.034,0.000
0.018,0.018,0.000,-0.018,0.009,0.009,-0.010,0.000,0.010,-0.040,-0.035,0.000
0.014,0.015,0.001,-0.014,0.006,0.007,-0.010,0.000,0.009,-0.040,-0.035,-0.001
0.010,0.015,0.005,-0.013,0.002,0.010,-0.010,0.000,0.005,-0.040,-0.035,-0.005
0.010,0.015,0.005,-0.013,0.002,0.010,-0.010,0.000,0.005,-0.040,-0.035,-0.005
0.010,0.015,0.004,-0.013,0.002,0.010,-0.007,0.001,0.005,-0.040,-0.035,-0.005
0.009,0.016,0.007,-0.013,0.001,0.011,-0.004,-0.002,0.005,-0.040,-0.035,-0.005
0.003,0.013,0.010,-0.008,-0.004,0.011,-0.005,-0.005,0.005,-0.040,-0.035,-0.005
0.000,0.010,0.010,-0.005,-0.005,0.010,-0.005,-0.005,0.005,-0.040,-0.035,-0.005
0.022,0.031,0.010,-0.026,0.006,0.020,-0.005,-0.005,0.001,-0.040,-0.035,-0.009
0.021,0.034,0.013,-0.028,0.004,0.023,-0.005,-0.005,0.000,-0.040,-0.035,-0.010
0.013,0.029,0.016,-0.022,-0.001,0.022,-0.005,-0.005,0.000,-0.040,-0.035,-0.010
0.015,0.030,0.015,-0.023,0.000,0.022,-0.005,-0.005,0.000,-0.040,-0.034,-0.010
0.015,0.030,0.015,-0.023,0.000,0.022,-0.005,-0.005,0.000,-0.040,-0.030,-0.010
0.015,0.030,0.015,-0.023,0.000,0.022,-0.005,-0.005,0.000,-0.040,-0.030,-0.010
0.015,0.027,0.012,-0.021,0.001,0.019,-0.005,-0.005,0.001,-0.040,-0.030,-0.011
0.015,0.024,0.009,-0.020,0.002,0.016,-0.005,-0.005,-0.002,-0.040,-0.030,-0.008
0.015,0.025,0.010,-0.020,0.002,0.017,-0.005,-0.005,-0.005,-0.040,-0.030,-0.005
0.015,0.025,0.010,-0.020,0.002,0.017,-0.005,-0.005,-0.005,-0.040,-0.030,-0.005
0.020,0.025,0.006,-0.023,0.006,0.016,-0.013,-0.005,-0.005,-0.040,-0.030,-0.005
0.017,0.022,0.005,-0.020,0.006,0.013,-0.019,-0.005,-0.008,-0.040,-0.030,-0.005
0.015,0.019,0.005,-0.018,0.005,0.012,-0.018,-0.005,-0.011,-0.040,-0.030,-0.005
0.015,0.020,0.006,-0.018,0.005,0.012,-0.015,-0.005,-0.010,-0.040,-0.030,-0.005
0.010,0.020,0.010,-0.015,0.000,0.015,-0.015,-0.005,-0.010,-0.040,-0.030,-0.005
0.005,0.020,0.015,-0.013,-0.005,0.017,-0.015,-0.004,-0.010,-0.040,-0.030,-0.005
0.008,0.021,0.012,-0.015,-0.002,0.016,-0.015,-0.012,-0.010,-0.039,-0.029,-0.005
0.009,0.018,0.009,-0.013,-0.001,0.014,-0.015,-0.014,-0.010,-0.044,-0.032,-0.005
0.004,0.015,0.010,-0.010,-0.003,0.012,-0.015,-0.009,-0.010,-0.050,-0.035,-0.005
0.005,0.015,0.010,-0.010,-0.003,0.012,-0.015,-0.010,-0.010,-0.045,-0.035,-0.005
0.005,0.015,0.010,-0.010,-0.003,0.012,-0.015,-0.010,-0.010,-0.045,-0.035,-0.005
0.005,0.016,0.010,-0.011,-0.003,0.012,-0.015,-0.010,-0.010,-0.045,-0.035,-0.005
0.003,0.013,0.010,-0.008,-0.004,0.011,-0.015,-0.010,-0.010,-0.045,-0.035,-0.005
0.000,0.010,0.010,-0.005,-0.005,0.010,-0.015,-0.010,-0.010,-0.045,-0.035,-0.005
0.000,0.010,0.010,-0.005,-0.005,0.010,-0.015,-0.010,-0.010,-0.045,-0.035,-0.005
0.000,0.010,0.010,-0.005,-0.005,0.010,-0.015,-0.010,-0.010,-0.045,-0.031,-0.013
0.000,0.010,0.010,-0.005,-0.005,0.010,-0.012,-0.010,-0.010,-0.046,-0.030,-0.019
0.001,0.011,0.010,-0.006,-0.004,0.010,-0.009,-0.010,-0.010,-0.043,-0.030,-0.018
-0.002,0.008,0.010,-0.003,-0.006,0.009,-0.010,-0.010,-0.010,-0.040,-0.030,-0.015
-0.005,0.005,0.010,0.000,-0.008,0.007,-0.010,-0.010,-0.010,-0.040,-0.030,-0.015
0.012,0.018,0.006,-0.015,0.003,0.011,-0.010,-0.010,-0.010,-0.040,-0.030,-0.015
0.014,0.018,0.005,-0.017,0.004,0.011,-0.010,-0.010,-0.010,-0.040,-0.030,-0.015
0.009,0.014,0.005,-0.012,0.001,0.010,-0.010,-0.010,-0.010,-0.040,-0.030,-0.015
0.010,0.015,0.005,-0.013,0.002,0.010,-0.010,-0.010,-0.010,-0.040,-0.030,-0.015
0.010,0.015,0.005,-0.013,0.002,0.010,-0.010,-0.010,-0.010,-0.040,-0.030,-0.015
0.010,0.015,0.005,-0.013,0.002,0.010,-0.010,-0.010,-0.010,-0.040,-0.030,-0.015
0.011,0.016,0.005,-0.014,0.002,0.010,-0.010,-0.010,-0.010,-0.037,-0.030,-0.012
0.008,0.013,0.005,-0.011,0.001,0.009,-0.010,-0.010,-0.010,-0.034,-0.030,-0.009
0.005,0.010,0.005,-0.008,0.000,0.007,-0.010,-0.010,-0.010,-0.035,-0.030,-0.010
0.005,0.010,0.005,-0.008,0.000,0.007,-0.010,-0.010,-0.010,-0.035,-0.030,-0.010
0.005,0.010,0.005,-0.008,0.000,0.007,-0.009,-0.010,-0.010,-0.035,-0.030,-0.010
0.005,0.010,0.005,-0.008,0.000,0.007,-0.017,-0.010,-0.011,-0.035,-0.030,-0.010
0.004,0.010,0.005,-0.008,-0.001,0.007,-0.019,-0.010,-0.008,-0.035,-0.030,-0.010
0.006,0.010,0.004,-0.009,0.001,0.007,-0.014,-0.010,-0.005,-0.035,-0.030,-0.010
0.010,0.010,0.000,-0.010,0.005,0.005,-0.015,-0.010,-0.005,-0.035,-0.030,-0.010
0.006,0.006,0.000,-0.006,0.002,0.003,-0.016,-0.014,-0.005,-0.035,-0.030,-0.006
0.008,0.005,-0.003,-0.006,0.005,0.000,-0.012,-0.015,-0.006,-0.032,-0.030,-0.005
0.010,0.005,-0.005,-0.007,0.007,0.000,-0.010,-0.015,-0.003,-0.029,-0.030,-0.005
0.011,0.005,-0.006,-0.007,0.008,0.000,-0.010,-0.015,0.000,-0.030,-0.030,-0.005
0.015,0.005,-0.010,-0.010,0.012,-0.002,-0.010,-0.015,0.000,-0.030,-0.030,-0.005
0.016,0.005,-0.011,-0.011,0.013,-0.002,-0.010,-0.015,0.000,-0.026,-0.030,-0.005
0.009,0.002,-0.007,-0.005,0.008,-0.002,-0.007,-0.015,-0.001,-0.025,-0.031,-0.005
0.002,-0.001,-0.002,0.000,0.002,-0.001,-0.004,-0.015,0.002,-0.025,-0.028,-0.005
0.000,0.000,0.000,0.000,0.000,0.000,-0.005,-0.015,0.005,-0.025,-0.025,-0.005
0.000,0.000,0.000,0.000,0.000,0.000,-0.005,-0.015,0.005,-0.025,-0.025,-0.005
-0.004,0.000,0.004,0.002,-0.004,0.002,-0.005,-0.015,0.005,-0.021,-0.025,-0.005
-0.005,0.000,0.005,0.001,-0.005,0.002,-0.002,-0.016,0.005,-0.020,-0.026,-0.004
-0.008,-0.001,0.006,0.004,-0.007,0.002,0.001,-0.013,0.005,-0.020,-0.023,-0.009
-0.009,0.003,0.011,0.003,-0.010,0.007,0.000,-0.010,0.006,-0.020,-0.020,-0.015
0.005,0.020,0.015,-0.013,-0.005,0.017,0.000,-0.010,0.010,-0.020,-0.020,-0.010
0.019,0.034,0.015,-0.027,0.002,0.024,0.004,-0.010,0.010,-0.016,-0.020,-0.010
0.015,0.033,0.018,-0.025,-0.001,0.026,0.005,-0.007,0.010,-0.014,-0.021,-0.011
0.006,0.027,0.021,-0.017,-0.007,0.024,0.005,-0.004,0.010,-0.016,-0.018,-0.008
0.006,0.025,0.019,-0.015,-0.007,0.022,0.005,-0.005,0.011,-0.014,-0.015,-0.005
0.010,0.025,0.015,-0.018,-0.003,0.020,0.005,-0.005,0.015,-0.010,-0.015,-0.005
0.010,0.021,0.011,-0.016,0.000,0.016,0.009,-0.001,0.015,-0.010,-0.015,-0.005
0.010,0.017,0.007,-0.014,0.001,0.012,0.010,0.001,0.015,-0.010,-0.015,-0.006
0.011,0.013,0.002,-0.012,0.004,0.008,0.010,-0.001,0.015,-0.010,-0.015,-0.003
0.009,0.018,0.009,-0.014,-0.001,0.014,0.010,0.001,0.015,-0.009,-0.014,0.000
0.005,0.035,0.030,-0.020,-0.013,0.032,0.010,0.005,0.015,-0.005,-0.010,0.000
0.013,0.044,0.031,-0.028,-0.010,0.037,0.018,0.005,0.019,-0.005,-0.010,0.000
0.020,0.048,0.029,-0.034,-0.005,0.039,0.024,0.004,0.020,-0.005,-0.010,0.000
0.018,0.050,0.032,-0.035,-0.007,0.041,0.026,0.007,0.022,-0.005,-0.010,0.002
0.014,0.050,0.036,-0.033,-0.011,0.042,0.024,0.010,0.025,-0.006,-0.009,0.005
0.010,0.050,0.040,-0.030,-0.015,0.045,0.020,0.010,0.020,-0.010,-0.005,0.005
0.001,0.050,0.049,-0.025,-0.024,0.049,0.020,0.010,0.020,-0.011,-0.005,0.005
0.003,0.050,0.048,-0.027,-0.023,0.049,0.017,0.013,0.020,-0.007,-0.005,0.008
0.005,0.049,0.044,-0.027,-0.020,0.046,0.015,0.016,0.020,-0.005,-0.005,0.010
0.007,0.052,0.045,-0.030,-0.019,0.048,0.014,0.015,0.020,-0.004,-0.005,0.010
0.020,0.065,0.045,-0.043,-0.013,0.055,0.010,0.015,0.020,0.000,-0.005,0.010
0.029,0.070,0.041,-0.049,-0.006,0.055,0.010,0.019,0.020,0.000,-0.001,0.010
0.030,0.070,0.040,-0.050,-0.005,0.055,0.011,0.020,0.020,-0.001,0.001,0.013
0.030,0.070,0.040,-0.050,-0.005,0.055,0.008,0.020,0.020,0.002,-0.001,0.016
0.030,0.070,0.040,-0.050,-0.005,0.055,0.005,0.020,0.020,0.005,0.001,0.015
0.030,0.070,0.040,-0.050,-0.005,0.055,0.005,0.020,0.020,0.005,0.005,0.015
0.034,0.070,0.036,-0.052,-0.001,0.053,0.001,0.016,0.019,0.009,0.005,0.015
0.036,0.070,0.034,-0.053,0.001,0.052,0.000,0.014,0.026,0.010,0.004,0.015
0.034,0.070,0.036,-0.053,-0.001,0.052,-0.002,0.016,0.032,0.010,0.007,0.015
0.036,0.070,0.034,-0.053,0.001,0.052,-0.006,0.014,0.037,0.009,0.010,0.015
0.040,0.070,0.030,-0.055,0.005,0.050,-0.005,0.010,0.045,0.005,0.010,0.015
0.040,0.070,0.030,-0.055,0.005,0.050,-0.004,0.010,0.041,0.005,0.010,0.015
0.040,0.070,0.030,-0.055,0.005,0.050,-0.011,0.011,0.040,0.005,0.013,0.015
0.040,0.070,0.030,-0.055,0.005,0.050,-0.018,0.008,0.038,0.005,0.016,0.014
0.041,0.070,0.029,-0.055,0.006,0.049,-0.021,0.005,0.035,0.005,0.015,0.017
0.045,0.070,0.025,-0.058,0.010,0.047,-0.025,0.005,0.035,0.005,0.015,0.025
0.046,0.070,0.025,-0.058,0.010,0.047,-0.033,0.005,0.031,0.004,0.019,0.026
0.043,0.068,0.025,-0.056,0.009,0.046,-0.038,0.002,0.029,0.012,0.021,0.023
0.051,0.076,0.025,-0.064,0.012,0.050,-0.043,-0.001,0.031,0.014,0.019,0.030
0.062,0.086,0.024,-0.074,0.018,0.055,-0.045,0.000,0.029,0.010,0.021,0.034
0.060,0.080,0.020,-0.070,0.020,0.050,-0.040,0.000,0.025,0.010,0.025,0.030
0.055,0.075,0.020,-0.065,0.017,0.047,-0.040,-0.004,0.025,0.006,0.025,0.043
0.058,0.075,0.017,-0.067,0.020,0.046,-0.040,-0.006,0.022,0.005,0.025,0.043
0.058,0.073,0.015,-0.066,0.021,0.044,-0.040,-0.004,0.020,0.003,0.023,0.039
0.056,0.070,0.014,-0.063,0.021,0.042,-0.040,-0.006,0.019,0.000,0.020,0.040
0.060,0.070,0.010,-0.065,0.025,0.040,-0.040,-0.010,0.015,0.000,0.020,0.040
0.056,0.066,0.010,-0.061,0.022,0.038,-0.036,-0.010,0.015,-0.004,0.016,0.036
0.058,0.065,0.007,-0.062,0.025,0.036,-0.035,-0.010,0.016,-0.006,0.014,0.034
0.059,0.064,0.004,-0.062,0.027,0.034,-0.035,-0.010,0.013,-0.004,0.016,0.036
0.053,0.059,0.005,-0.056,0.024,0.032,-0.035,-0.010,0.010,-0.006,0.014,0.034
0.050,0.055,0.005,-0.053,0.022,0.030,-0.035,-0.010,0.010,-0.010,0.010,0.030
0.055,0.055,0.001,-0.055,0.026,0.028,-0.035,-0.009,0.006,-0.010,0.010,0.030
0.052,0.052,0.000,-0.052,0.026,0.026,-0.036,-0.019,0.004,-0.013,0.007,0.031
0.052,0.050,-0.002,-0.051,0.027,0.024,-0.033,-0.027,0.006,-0.015,0.004,0.028
0.054,0.049,-0.005,-0.051,0.030,0.022,-0.030,-0.025,0.004,-0.016,0.005,0.025
0.050,0.045,-0.005,-0.047,0.027,0.020,-0.030,-0.025,0.000,-0.020,0.005,0.025
0.055,0.045,-0.009,-0.050,0.031,0.018,-0.030,-0.025,0.000,-0.020,0.001,0.025
0.050,0.040,-0.010,-0.045,0.029,0.014,-0.030,-0.025,0.001,-0.023,0.000,0.022
0.042,0.031,-0.012,-0.036,0.027,0.009,-0.030,-0.025,-0.002,-0.025,-0.002,0.019
0.039,0.023,-0.015,-0.030,0.027,0.004,-0.029,-0.025,-0.005,-0.025,-0.006,0.020
0.030,0.015,-0.015,-0.022,0.022,0.000,-0.025,-0.025,-0.005,-0.025,-0.005,0.020
0.022,0.007,-0.015,-0.014,0.018,-0.004,-0.025,-0.025,-0.004,-0.021,-0.005,0.016
0.013,-0.003,-0.016,-0.005,0.015,-0.009,-0.025,-0.025,-0.008,-0.018,-0.008,0.014
0.008,-0.004,-0.012,-0.001,0.011,-0.008,-0.025,-0.025,-0.010,-0.025,-0.011,0.015
0.003,-0.017,-0.020,0.008,0.012,-0.018,-0.025,-0.025,-0.011,-0.037,-0.010,0.014
-0.005,-0.050,-0.045,0.028,0.020,-0.047,-0.025,-0.025,-0.015,-0.040,-0.010,0.010
-0.005,-0.047,-0.042,0.026,0.019,-0.044,-0.025,-0.025,-0.015,-0.040,-0.014,0.005
-0.005,-0.044,-0.039,0.025,0.017,-0.041,-0.022,-0.025,-0.014,-0.037,-0.018,0.005
-0.003,-0.044,-0.040,0.023,0.019,-0.042,-0.019,-0.025,-0.017,-0.034,-0.020,0.003
0.000,-0.039,-0.040,0.019,0.020,-0.040,-0.020,-0.025,-0.020,-0.035,-0.020,0.000
0.000,-0.040,-0.040,0.020,0.020,-0.040,-0.020,-0.025,-0.020,-0.035,-0.020,0.000
0.000,-0.040,-0.040,0.020,0.020,-0.040,-0.020,-0.025,-0.020,-0.035,-0.021,-0.004
0.003,-0.037,-0.040,0.017,0.022,-0.038,-0.020,-0.025,-0.023,-0.037,-0.015,-0.005
0.006,-0.034,-0.040,0.014,0.024,-0.037,-0.020,-0.025,-0.026,-0.045,-0.020,-0.006
0.004,-0.035,-0.039,0.016,0.022,-0.037,-0.020,-0.025,-0.025,-0.050,-0.031,-0.011
0.000,-0.035,-0.035,0.018,0.018,-0.035,-0.020,-0.025,-0.025,-0.045,-0.030,-0.015
0.004,-0.031,-0.035,0.014,0.019,-0.032,-0.016,-0.025,-0.029,-0.045,-0.030,-0.015
0.006,-0.029,-0.035,0.012,0.020,-0.032,-0.015,-0.024,-0.030,-0.045,-0.030,-0.018
0.004,-0.031,-0.035,0.014,0.020,-0.032,-0.015,-0.029,-0.030,-0.045,-0.030,-0.020
0.006,-0.029,-0.035,0.012,0.021,-0.032,-0.015,-0.036,-0.030,-0.045,-0.030,-0.021
0.010,-0.025,-0.035,0.008,0.023,-0.030,-0.015,-0.035,-0.030,-0.045,-0.030,-0.025
0.010,-0.025,-0.035,0.008,0.023,-0.030,-0.015,-0.035,-0.030,-0.044,-0.030,-0.025
0.010,-0.025,-0.036,0.008,0.024,-0.030,-0.015,-0.035,-0.031,-0.051,-0.033,-0.028
0.008,-0.025,-0.033,0.009,0.021,-0.029,-0.015,-0.036,-0.028,-0.058,-0.037,-0.031
-0.004,-0.033,-0.030,0.018,0.013,-0.031,-0.014,-0.033,-0.025,-0.060,-0.040,-0.029
-0.020,-0.050,-0.030,0.035,0.005,-0.040,-0.010,-0.025,-0.025,-0.060,-0.040,-0.030
-0.030,-0.060,-0.030,0.045,0.000,-0.045,-0.010,-0.041,-0.025,-0.060,-0.040,-0.039
-0.027,-0.057,-0.030,0.042,0.002,-0.043,-0.010,-0.047,-0.025,-0.060,-0.040,-0.038
-0.025,-0.055,-0.030,0.040,0.003,-0.042,-0.010,-0.044,-0.025,-0.060,-0.040,-0.034
-0.024,-0.054,-0.030,0.039,0.003,-0.042,-0.010,-0.045,-0.025,-0.060,-0.040,-0.035
-0.020,-0.050,-0.030,0.035,0.005,-0.040,-0.010,-0.045,-0.025,-0.060,-0.040,-0.035
-0.020,-0.050,-0.030,0.035,0.005,-0.040,-0.010,-0.045,-0.025,-0.060,-0.040,-0.031
-0.021,-0.051,-0.030,0.036,0.005,-0.040,-0.010,-0.045,-0.025,-0.060,-0.040,-0.030
-0.018,-0.048,-0.030,0.033,0.006,-0.039,-0.009,-0.045,-0.025,-0.060,-0.040,-0.029
-0.015,-0.045,-0.030,0.030,0.008,-0.037,-0.011,-0.045,-0.025,-0.060,-0.040,-0.032
-0.015,-0.045,-0.030,0.030,0.008,-0.037,-0.015,-0.045,-0.025,-0.060,-0.040,-0.040
-0.015,-0.045,-0.030,0.030,0.008,-0.037,-0.011,-0.045,-0.025,-0.060,-0.040,-0.037
-0.013,-0.042,-0.029,0.028,0.008,-0.035,-0.006,-0.045,-0.025,-0.060,-0.039,-0.029
-0.005,-0.039,-0.034,0.022,0.015,-0.037,-0.005,-0.046,-0.025,-0.060,-0.044,-0.038
-0.001,-0.040,-0.040,0.021,0.019,-0.040,-0.005,-0.043,-0.025,-0.060,-0.050,-0.051
-0.010,-0.040,-0.030,0.025,0.010,-0.035,0.000,-0.030,-0.025,-0.060,-0.040,-0.045
-0.015,-0.036,-0.021,0.025,0.004,-0.028,0.005,-0.018,-0.020,-0.052,-0.032,-0.041
-0.017,-0.034,-0.017,0.026,0.001,-0.025,0.003,-0.005,-0.020,-0.047,-0.024,-0.037
-0.025,-0.037,-0.012,0.031,-0.006,-0.024,0.012,0.002,0.000,-0.025,-0.016,-0.033
-0.029,-0.032,-0.003,0.031,-0.013,-0.017,0.029,0.016,0.040,0.015,-0.007,-0.029
-0.020,-0.015,0.005,0.017,-0.012,-0.005,0.040,0.045,0.070,0.050,0.000,-0.025
-0.012,-0.003,0.008,0.007,-0.010,0.002,0.056,0.060,0.096,0.078,0.000,-0.024
-0.004,0.015,0.018,-0.006,-0.011,0.016,0.070,0.129,0.176,0.145,0.043,0.005
0.020,0.033,0.014,-0.026,0.003,0.023,0.080,0.213,0.265,0.219,0.103,0.043
0.061,0.059,-0.003,-0.060,0.032,0.028,0.094,0.276,0.342,0.292,0.162,0.080
0.105,0.085,-0.020,-0.095,0.062,0.032,0.105,0.350,0.445,0.395,0.240,0.125
0.144,0.075,-0.069,-0.109,0.107,0.003,0.089,0.435,0.562,0.508,0.323,0.174
0.232,0.135,-0.098,-0.183,0.165,0.019,0.078,0.507,0.704,0.652,0.453,0.253
0.347,0.214,-0.133,-0.280,0.240,0.040,0.036,0.542,0.837,0.821,0.622,0.364
0.458,0.271,-0.187,-0.364,0.322,0.042,-0.045,0.535,0.948,0.982,0.799,0.484
0.580,0.340,-0.240,-0.460,0.410,0.050,-0.130,0.515,1.050,1.110,0.970,0.605
0.720,0.396,-0.324,-0.558,0.522,0.036,-0.242,0.506,1.110,1.206,1.139,0.746
0.852,0.454,-0.398,-0.653,0.625,0.028,-0.381,0.426,1.101,1.229,1.282,0.865
0.962,0.498,-0.463,-0.730,0.712,0.017,-0.530,0.286,1.005,1.154,1.291,0.930
1.023,0.509,-0.514,-0.766,0.769,-0.003,-0.675,0.104,0.804,0.958,1.217,0.945
1.015,0.470,-0.545,-0.742,0.780,-0.037,-0.790,-0.125,0.500,0.645,1.150,0.910
0.968,0.356,-0.612,-0.661,0.790,-0.128,-0.850,-0.349,0.157,0.292,0.939,0.808
0.915,0.215,-0.700,-0.565,0.808,-0.242,-0.888,-0.549,-0.154,-0.049,0.689,0.669
0.815,0.126,-0.689,-0.470,0.752,-0.281,-0.954,-0.810,-0.513,-0.381,0.472,0.554
0.686,0.084,-0.602,-0.385,0.644,-0.259,-1.040,-1.109,-0.898,-0.685,0.303,0.477
0.590,0.030,-0.560,-0.310,0.575,-0.265,-1.105,-1.325,-1.170,-0.910,0.175,0.410
0.484,-0.033,-0.517,-0.225,0.500,-0.274,-1.137,-1.437,-1.312,-1.047,0.058,0.346
0.371,-0.101,-0.471,-0.135,0.421,-0.285,-1.105,-1.423,-1.354,-1.116,-0.013,0.283
0.294,-0.136,-0.429,-0.079,0.362,-0.282,-1.062,-1.389,-1.335,-1.099,-0.071,0.232
0.230,-0.151,-0.382,-0.039,0.306,-0.266,-1.004,-1.336,-1.268,-1.045,-0.125,0.188
0.155,-0.170,-0.325,0.008,0.240,-0.247,-0.885,-1.180,-1.145,-0.995,-0.140,0.150
0.144,-0.129,-0.274,-0.007,0.209,-0.201,-0.762,-1.012,-0.983,-0.859,-0.132,0.162
0.135,-0.079,-0.214,-0.028,0.175,-0.146,-0.664,-0.882,-0.852,-0.748,-0.126,0.158
0.085,-0.060,-0.145,-0.013,0.116,-0.102,-0.575,-0.764,-0.735,-0.658,-0.124,0.147
0.038,-0.060,-0.098,0.011,0.068,-0.078,-0.482,-0.648,-0.627,-0.571,-0.118,0.134
0.035,-0.055,-0.090,0.010,0.063,-0.072,-0.400,-0.560,-0.555,-0.510,-0.110,0.100
0.029,-0.050,-0.079,0.011,0.054,-0.064,-0.343,-0.495,-0.482,-0.450,-0.106,0.071
0.008,-0.050,-0.058,0.022,0.033,-0.054,-0.290,-0.435,-0.421,-0.391,-0.102,0.052
-0.017,-0.049,-0.031,0.034,0.007,-0.040,-0.242,-0.376,-0.369,-0.342,-0.098,0.037
-0.032,-0.044,-0.012,0.038,-0.009,-0.028,-0.200,-0.321,-0.317,-0.299,-0.095,0.021
-0.030,-0.040,-0.010,0.035,-0.010,-0.025,-0.160,-0.270,-0.265,-0.255,-0.095,0.005
-0.030,-0.040,-0.010,0.035,-0.010,-0.025,-0.124,-0.226,-0.211,-0.219,-0.095,-0.011
-0.030,-0.037,-0.007,0.034,-0.011,-0.022,-0.090,-0.184,-0.175,-0.184,-0.092,-0.025
-0.029,-0.033,-0.004,0.031,-0.012,-0.018,-0.062,-0.150,-0.143,-0.160,-0.089,-0.033
-0.024,-0.029,-0.005,0.027,-0.009,-0.017,-0.039,-0.123,-0.114,-0.146,-0.090,-0.036
-0.025,-0.030,-0.005,0.028,-0.010,-0.017,-0.020,-0.100,-0.100,-0.130,-0.090,-0.040
-0.042,-0.043,-0.001,0.043,-0.020,-0.021,-0.011,-0.091,-0.088,-0.114,-0.086,-0.047
-0.044,-0.043,0.001,0.043,-0.022,-0.021,-0.007,-0.084,-0.073,-0.100,-0.084,-0.061
-0.039,-0.039,-0.001,0.039,-0.019,-0.020,-0.003,-0.076,-0.058,-0.090,-0.086,-0.064
-0.040,-0.039,0.001,0.040,-0.020,-0.019,0.002,-0.068,-0.048,-0.084,-0.084,-0.059
-0.040,-0.035,0.005,0.037,-0.022,-0.015,0.010,-0.060,-0.045,-0.080,-0.080,-0.060
-0.041,-0.035,0.005,0.037,-0.022,-0.015,0.014,-0.052,-0.041,-0.076,-0.080,-0.061
-0.036,-0.032,0.004,0.033,-0.020,-0.013,0.017,-0.044,-0.040,-0.072,-0.081,-0.057
-0.037,-0.030,0.007,0.033,-0.022,-0.011,0.026,-0.036,-0.039,-0.068,-0.078,-0.055
-0.039,-0.029,0.010,0.034,-0.025,-0.009,0.037,-0.029,-0.034,-0.064,-0.075,-0.055
-0.035,-0.025,0.010,0.030,-0.022,-0.007,0.040,-0.025,-0.030,-0.060,-0.075,-0.055
-0.046,-0.036,0.010,0.041,-0.028,-0.013,0.040,-0.021,-0.030,-0.056,-0.075,-0.063
-0.061,-0.051,0.010,0.056,-0.035,-0.020,0.041,-0.017,-0.027,-0.055,-0.072,-0.069
-0.065,-0.056,0.009,0.061,-0.036,-0.023,0.037,-0.013,-0.024,-0.056,-0.069,-0.068
-0.067,-0.055,0.012,0.061,-0.039,-0.021,0.037,-0.009,-0.025,-0.054,-0.070,-0.065
-0.075,-0.055,0.020,0.065,-0.047,-0.017,0.050,-0.005,-0.025,-0.050,-0.070,-0.065
-0.068,-0.055,0.013,0.062,-0.040,-0.020,0.055,0.004,-0.021,-0.050,-0.066,-0.065
-0.056,-0.055,0.001,0.055,-0.028,-0.027,0.055,0.000,-0.019,-0.051,-0.065,-0.065
-0.061,-0.055,0.006,0.058,-0.033,-0.024,0.055,-0.009,-0.021,-0.048,-0.065,-0.065
-0.079,-0.055,0.024,0.067,-0.051,-0.015,0.055,-0.008,-0.019,-0.045,-0.065,-0.065
-0.090,-0.055,0.035,0.072,-0.062,-0.010,0.055,0.005,-0.015,-0.045,-0.065,-0.065
-0.099,-0.055,0.044,0.077,-0.071,-0.005,0.059,0.014,-0.015,-0.045,-0.065,-0.065
-0.098,-0.055,0.043,0.076,-0.070,-0.006,0.060,0.012,-0.016,-0.042,-0.065,-0.065
-0.094,-0.055,0.039,0.075,-0.066,-0.007,0.060,0.009,-0.013,-0.039,-0.065,-0.065
-0.095,-0.055,0.040,0.075,-0.067,-0.007,0.060,0.010,-0.010,-0.040,-0.065,-0.065
-0.095,-0.055,0.040,0.075,-0.067,-0.007,0.060,0.010,-0.010,-0.040,-0.065,-0.065
-0.091,-0.055,0.036,0.072,-0.063,-0.010,0.060,0.006,-0.010,-0.036,-0.065,-0.065
-0.089,-0.055,0.034,0.072,-0.061,-0.010,0.060,0.005,-0.007,-0.034,-0.065,-0.062
-0.091,-0.055,0.036,0.072,-0.063,-0.010,0.060,0.004,-0.004,-0.036,-0.065,-0.059
-0.089,-0.055,0.034,0.072,-0.061,-0.010,0.060,0.007,-0.005,-0.034,-0.064,-0.060
-0.085,-0.055,0.030,0.070,-0.057,-0.012,0.060,0.020,-0.005,-0.030,-0.060,-0.060
-0.085,-0.055,0.030,0.070,-0.057,-0.012,0.060,0.025,-0.001,-0.030,-0.060,-0.060
-0.086,-0.055,0.031,0.070,-0.058,-0.012,0.060,0.025,0.001,-0.031,-0.060,-0.060
-0.083,-0.055,0.028,0.069,-0.055,-0.013,0.060,0.025,-0.001,-0.028,-0.060,-0.060
-0.080,-0.055,0.025,0.067,-0.052,-0.015,0.060,0.025,0.001,-0.025,-0.060,-0.060
-0.080,-0.055,0.025,0.067,-0.052,-0.015,0.060,0.025,0.010,-0.025,-0.060,-0.060
-0.080,-0.055,0.025,0.067,-0.052,-0.015,0.060,0.025,0.019,-0.025,-0.060,-0.060
-0.081,-0.055,0.026,0.067,-0.053,-0.015,0.060,0.025,0.018,-0.025,-0.060,-0.060
-0.078,-0.055,0.023,0.066,-0.050,-0.016,0.060,0.025,0.014,-0.025,-0.060,-0.060
-0.075,-0.055,0.020,0.065,-0.047,-0.017,0.060,0.025,0.015,-0.025,-0.060,-0.060
-0.075,-0.055,0.020,0.065,-0.047,-0.017,0.060,0.025,0.015,-0.025,-0.060,-0.060
-0.071,-0.051,0.020,0.061,-0.045,-0.015,0.060,0.025,0.015,-0.025,-0.060,-0.056
-0.070,-0.050,0.020,0.060,-0.045,-0.015,0.060,0.024,0.015,-0.025,-0.061,-0.055
-0.068,-0.050,0.018,0.059,-0.043,-0.016,0.060,0.027,0.015,-0.025,-0.058,-0.055
-0.065,-0.050,0.015,0.057,-0.040,-0.017,0.060,0.030,0.015,-0.025,-0.055,-0.055
-0.065,-0.050,0.015,0.057,-0.040,-0.017,0.060,0.030,0.015,-0.025,-0.055,-0.055
-0.061,-0.046,0.015,0.053,-0.038,-0.015,0.064,0.030,0.015,-0.025,-0.055,-0.055
-0.056,-0.045,0.012,0.050,-0.034,-0.016,0.065,0.030,0.015,-0.025,-0.055,-0.055
-0.055,-0.045,0.010,0.050,-0.032,-0.017,0.067,0.030,0.014,-0.025,-0.055,-0.055
-0.055,-0.045,0.010,0.050,-0.032,-0.017,0.070,0.030,0.017,-0.025,-0.055,-0.055
-0.055,-0.045,0.010,0.050,-0.032,-0.017,0.070,0.030,0.025,-0.025,-0.055,-0.055
-0.051,-0.041,0.010,0.046,-0.031,-0.015,0.070,0.030,0.025,-0.025,-0.055,-0.055
-0.046,-0.040,0.007,0.043,-0.027,-0.016,0.070,0.030,0.025,-0.025,-0.055,-0.055
-0.045,-0.040,0.004,0.042,-0.025,-0.017,0.070,0.030,0.025,-0.025,-0.055,-0.055
-0.045,-0.040,0.005,0.042,-0.025,-0.017,0.070,0.030,0.025,-0.025,-0.055,-0.055
-0.045,-0.040,0.005,0.042,-0.025,-0.017,0.070,0.030,0.025,-0.025,-0.055,-0.055
-0.046,-0.040,0.005,0.043,-0.026,-0.017,0.070,0.030,0.025,-0.025,-0.051,-0.055
-0.039,-0.037,0.002,0.038,-0.020,-0.017,0.070,0.030,0.025,-0.025,-0.050,-0.054
-0.034,-0.034,-0.001,0.034,-0.016,-0.017,0.070,0.030,0.025,-0.025,-0.051,-0.059
-0.035,-0.035,0.000,0.035,-0.017,-0.017,0.070,0.030,0.025,-0.025,-0.058,-0.065
-0.035,-0.035,0.000,0.035,-0.017,-0.017,0.070,0.030,0.025,-0.025,-0.070,-0.060
-0.031,-0.035,-0.004,0.034,-0.013,-0.020,0.070,0.034,0.025,-0.021,-0.066,-0.060
-0.027,-0.032,-0.005,0.030,-0.011,-0.018,0.070,0.035,0.025,-0.020,-0.064,-0.060
-0.024,-0.029,-0.006,0.027,-0.009,-0.017,0.070,0.036,0.025,-0.020,-0.065,-0.060
-0.027,-0.030,-0.003,0.029,-0.012,-0.016,0.070,0.041,0.025,-0.020,-0.065,-0.060
-0.035,-0.030,0.005,0.032,-0.020,-0.012,0.070,0.045,0.025,-0.020,-0.065,-0.060
-0.039,-0.030,0.009,0.034,-0.024,-0.011,0.070,0.049,0.025,-0.020,-0.065,-0.060
-0.045,-0.029,0.016,0.037,-0.030,-0.007,0.070,0.050,0.024,-0.020,-0.065,-0.060
-0.055,-0.032,0.023,0.043,-0.039,-0.004,0.070,0.050,0.027,-0.020,-0.065,-0.060
-0.060,-0.035,0.024,0.047,-0.042,-0.005,0.070,0.050,0.030,-0.019,-0.064,-0.060
-0.055,-0.035,0.020,0.045,-0.037,-0.007,0.070,0.050,0.030,-0.015,-0.060,-0.060
-0.055,-0.035,0.020,0.045,-0.037,-0.007,0.078,0.050,0.034,-0.015,-0.060,-0.059
-0.055,-0.035,0.020,0.045,-0.037,-0.007,0.081,0.050,0.035,-0.015,-0.060,-0.064
-0.054,-0.034,0.020,0.044,-0.037,-0.007,0.080,0.050,0.035,-0.015,-0.060,-0.064
-0.056,-0.036,0.020,0.046,-0.038,-0.008,0.080,0.050,0.035,-0.015,-0.060,-0.068
-0.065,-0.045,0.020,0.055,-0.042,-0.012,0.080,0.050,0.035,-0.015,-0.060,-0.080
-0.074,-0.054,0.020,0.064,-0.046,-0.016,0.079,0.058,0.035,-0.015,-0.060,-0.076
-0.073,-0.053,0.020,0.063,-0.046,-0.016,0.087,0.065,0.035,-0.016,-0.061,-0.074
-0.067,-0.047,0.020,0.057,-0.043,-0.013,0.089,0.062,0.033,-0.013,-0.058,-0.075
-0.065,-0.045,0.020,0.055,-0.042,-0.012,0.084,0.053,0.029,-0.010,-0.055,-0.075
-0.065,-0.045,0.020,0.055,-0.042,-0.012,0.085,0.050,0.030,-0.010,-0.055,-0.075
-0.061,-0.041,0.020,0.051,-0.040,-0.010,0.085,0.061,0.042,-0.010,-0.055,-0.075
-0.060,-0.040,0.020,0.050,-0.040,-0.010,0.085,0.076,0.049,-0.010,-0.055,-0.072
-0.059,-0.039,0.020,0.049,-0.039,-0.009,0.085,0.081,0.050,-0.010,-0.055,-0.069
-0.054,-0.034,0.020,0.044,-0.036,-0.006,0.085,0.079,0.050,-0.010,-0.055,-0.070
-0.050,-0.030,0.020,0.040,-0.035,-0.005,0.085,0.080,0.050,-0.010,-0.055,-0.070
-0.050,-0.030,0.019,0.040,-0.034,-0.006,0.094,0.088,0.058,-0.010,-0.055,-0.070
-0.052,-0.027,0.026,0.040,-0.039,-0.001,0.095,0.094,0.064,-0.010,-0.054,-0.070
-0.058,-0.025,0.033,0.041,-0.045,0.004,0.099,0.096,0.064,-0.009,-0.059,-0.070
-0.060,-0.024,0.035,0.041,-0.047,0.005,0.106,0.103,0.068,-0.004,-0.065,-0.069
-0.055,-0.020,0.035,0.037,-0.045,0.007,0.105,0.110,0.080,0.000,-0.060,-0.065
-0.055,-0.020,0.035,0.037,-0.045,0.007,0.105,0.100,0.071,0.000,-0.060,-0.065
-0.056,-0.020,0.036,0.037,-0.046,0.007,0.108,0.112,0.081,0.002,-0.057,-0.065
-0.053,-0.020,0.033,0.036,-0.043,0.006,0.112,0.120,0.095,0.008,-0.054,-0.065
-0.050,-0.020,0.030,0.035,-0.040,0.005,0.116,0.116,0.095,0.010,-0.055,-0.065
-0.050,-0.020,0.030,0.035,-0.040,0.005,0.120,0.130,0.095,0.010,-0.055,-0.065
-0.042,-0.016,0.026,0.029,-0.034,0.005,0.128,0.139,0.099,0.018,-0.051,-0.061
-0.037,-0.015,0.023,0.025,-0.030,0.004,0.134,0.143,0.103,0.021,-0.050,-0.060
-0.046,-0.015,0.031,0.031,-0.038,0.008,0.135,0.149,0.106,0.019,-0.048,-0.060
-0.056,-0.015,0.041,0.035,-0.048,0.012,0.135,0.157,0.112,0.022,-0.044,-0.060
-0.050,-0.015,0.035,0.032,-0.042,0.010,0.135,0.160,0.120,0.030,-0.045,-0.060
-0.049,-0.016,0.033,0.032,-0.041,0.009,0.134,0.163,0.115,0.035,-0.046,-0.060
-0.055,-0.009,0.045,0.032,-0.049,0.018,0.141,0.175,0.124,0.036,-0.042,-0.061
-0.051,-0.002,0.048,0.026,-0.049,0.023,0.147,0.181,0.132,0.034,-0.040,-0.058
-0.046,0.001,0.046,0.022,-0.046,0.023,0.153,0.189,0.138,0.037,-0.039,-0.055
-0.055,0.005,0.060,0.025,-0.058,0.032,0.165,0.210,0.155,0.050,-0.035,-0.055
-0.056,0.009,0.065,0.023,-0.061,0.036,0.169,0.214,0.164,0.063,-0.035,-0.051
-0.051,0.013,0.065,0.018,-0.058,0.039,0.174,0.220,0.169,0.067,-0.036,-0.050
-0.051,0.016,0.066,0.017,-0.059,0.041,0.174,0.229,0.170,0.063,-0.033,-0.048
-0.048,0.023,0.071,0.012,-0.060,0.047,0.177,0.238,0.180,0.069,-0.030,-0.045
-0.035,0.035,0.070,0.000,-0.053,0.052,0.190,0.250,0.200,0.085,-0.030,-0.045
-0.029,0.030,0.059,0.000,-0.044,0.044,0.190,0.253,0.199,0.080,-0.030,-0.041
-0.036,0.042,0.078,-0.003,-0.057,0.060,0.195,0.266,0.215,0.091,-0.027,-0.040
-0.026,0.066,0.092,-0.020,-0.060,0.078,0.204,0.283,0.228,0.103,-0.023,-0.038
-0.026,0.058,0.083,-0.016,-0.055,0.070,0.212,0.290,0.224,0.099,-0.019,-0.035
-0.055,0.030,0.085,0.012,-0.070,0.057,0.215,0.290,0.225,0.100,-0.015,-0.035
-0.031,0.066,0.097,-0.018,-0.064,0.081,0.214,0.301,0.240,0.115,-0.011,-0.031
-0.028,0.080,0.107,-0.026,-0.068,0.093,0.225,0.316,0.258,0.131,-0.006,-0.027
-0.037,0.073,0.111,-0.018,-0.075,0.091,0.230,0.320,0.269,0.136,-0.005,-0.023
-0.034,0.076,0.110,-0.021,-0.073,0.092,0.224,0.322,0.270,0.135,-0.004,-0.019
-0.035,0.075,0.110,-0.020,-0.073,0.092,0.225,0.335,0.270,0.135,0.005,-0.015
-0.038,0.073,0.110,-0.017,-0.074,0.091,0.221,0.340,0.273,0.138,0.009,-0.011
-0.016,0.092,0.109,-0.038,-0.063,0.100,0.219,0.339,0.281,0.146,0.012,-0.007
-0.002,0.112,0.114,-0.055,-0.058,0.112,0.221,0.346,0.287,0.153,0.019,-0.003
-0.006,0.115,0.121,-0.055,-0.064,0.118,0.219,0.357,0.291,0.155,0.026,0.001
-0.005,0.115,0.120,-0.055,-0.063,0.117,0.215,0.360,0.300,0.155,0.030,0.005
-0.005,0.115,0.120,-0.055,-0.063,0.117,0.215,0.369,0.313,0.167,0.034,0.009
-0.005,0.116,0.121,-0.056,-0.063,0.118,0.216,0.368,0.313,0.174,0.038,0.013
-0.006,0.112,0.118,-0.053,-0.063,0.114,0.213,0.363,0.308,0.175,0.041,0.017
-0.003,0.121,0.124,-0.059,-0.064,0.122,0.210,0.359,0.304,0.175,0.039,0.021
0.010,0.150,0.140,-0.080,-0.065,0.145,0.210,0.355,0.300,0.175,0.040,0.025
0.015,0.148,0.133,-0.082,-0.060,0.140,0.210,0.351,0.300,0.175,0.049,0.038
0.015,0.138,0.123,-0.077,-0.054,0.131,0.207,0.346,0.298,0.175,0.050,0.041
0.032,0.148,0.116,-0.090,-0.042,0.132,0.204,0.346,0.292,0.175,0.053,0.042
0.053,0.161,0.108,-0.107,-0.027,0.134,0.206,0.343,0.290,0.174,0.061,0.053
0.055,0.155,0.100,-0.105,-0.023,0.127,0.205,0.330,0.290,0.170,0.065,0.065
0.058,0.151,0.092,-0.105,-0.017,0.121,0.193,0.322,0.286,0.166,0.073,0.070
0.063,0.147,0.083,-0.105,-0.010,0.115,0.183,0.314,0.281,0.162,0.079,0.070
0.050,0.145,0.095,-0.098,-0.023,0.120,0.177,0.306,0.280,0.158,0.080,0.070
0.034,0.144,0.111,-0.089,-0.039,0.127,0.167,0.298,0.279,0.154,0.081,0.070
0.040,0.140,0.100,-0.090,-0.030,0.120,0.155,0.290,0.270,0.150,0.085,0.070
0.044,0.136,0.091,-0.090,-0.024,0.113,0.147,0.282,0.262,0.146,0.086,0.070
0.048,0.135,0.087,-0.092,-0.020,0.111,0.139,0.271,0.254,0.139,0.082,0.069
0.052,0.134,0.082,-0.093,-0.015,0.107,0.131,0.259,0.246,0.132,0.080,0.072
0.056,0.129,0.073,-0.093,-0.008,0.100,0.124,0.247,0.238,0.129,0.079,0.075
0.060,0.125,0.065,-0.093,-0.003,0.095,0.120,0.235,0.230,0.125,0.075,0.070
0.064,0.126,0.061,-0.095,0.001,0.093,0.112,0.227,0.227,0.121,0.075,0.065
0.066,0.120,0.054,-0.093,0.006,0.086,0.107,0.216,0.216,0.117,0.076,0.065
0.062,0.110,0.048,-0.087,0.007,0.079,0.101,0.204,0.206,0.113,0.073,0.063
0.061,0.104,0.043,-0.083,0.008,0.073,0.094,0.192,0.197,0.108,0.070,0.060
0.065,0.100,0.035,-0.083,0.015,0.067,0.090,0.180,0.185,0.100,0.070,0.060
0.061,0.092,0.031,-0.077,0.015,0.062,0.082,0.168,0.177,0.096,0.066,0.056
0.059,0.083,0.025,-0.071,0.017,0.054,0.076,0.156,0.166,0.092,0.064,0.051
0.063,0.078,0.015,-0.071,0.024,0.047,0.074,0.146,0.155,0.088,0.066,0.050
0.055,0.073,0.018,-0.065,0.018,0.046,0.068,0.138,0.148,0.084,0.064,0.049
0.030,0.065,0.035,-0.048,-0.003,0.050,0.060,0.130,0.140,0.080,0.060,0.045
0.033,0.061,0.028,-0.048,0.003,0.044,0.056,0.122,0.132,0.076,0.060,0.045
0.033,0.054,0.021,-0.044,0.006,0.037,0.053,0.111,0.124,0.069,0.057,0.042
0.029,0.048,0.019,-0.039,0.005,0.033,0.044,0.100,0.116,0.062,0.055,0.038
0.030,0.043,0.013,-0.037,0.008,0.028,0.043,0.093,0.108,0.059,0.054,0.034
0.030,0.035,0.005,-0.033,0.012,0.020,0.060,0.085,0.100,0.055,0.050,0.030
0.030,0.031,0.001,-0.030,0.014,0.016,0.057,0.073,0.092,0.047,0.050,0.026
0.031,0.027,-0.004,-0.029,0.017,0.012,0.051,0.064,0.084,0.042,0.047,0.021
0.027,0.023,-0.004,-0.025,0.015,0.009,0.048,0.056,0.076,0.038,0.045,0.020
0.026,0.028,0.002,-0.027,0.012,0.014,0.044,0.048,0.068,0.034,0.044,0.019
0.035,0.040,0.005,-0.038,0.015,0.022,0.040,0.040,0.060,0.030,0.040,0.015
0.031,0.033,0.001,-0.032,0.015,0.017,0.040,0.036,0.052,0.026,0.040,0.015
0.029,0.026,-0.003,-0.027,0.016,0.011,0.037,0.029,0.044,0.022,0.037,0.016
0.031,0.024,-0.007,-0.027,0.018,0.008,0.033,0.023,0.036,0.018,0.033,0.013
0.029,0.018,-0.011,-0.024,0.020,0.004,0.029,0.018,0.028,0.015,0.029,0.010
0.025,0.010,-0.015,-0.017,0.020,-0.002,0.025,0.010,0.025,0.015,0.025,0.010
0.025,0.006,-0.019,-0.015,0.022,-0.006,0.021,0.006,0.025,0.011,0.021,0.010
0.022,0.002,-0.020,-0.012,0.021,-0.009,0.020,0.002,0.022,0.007,0.020,0.011
0.018,-0.002,-0.020,-0.008,0.019,-0.011,0.018,-0.002,0.020,0.003,0.019,0.008
0.023,-0.005,-0.028,-0.008,0.026,-0.017,0.015,-0.005,0.019,-0.001,0.014,0.005
0.035,-0.005,-0.040,-0.015,0.038,-0.022,0.015,-0.005,0.015,-0.005,0.010,0.005
0.032,-0.005,-0.036,-0.013,0.035,-0.020,0.015,-0.009,0.015,-0.004,0.006,0.005
0.026,-0.008,-0.034,-0.008,0.030,-0.021,0.015,-0.010,0.016,-0.014,0.002,0.005
0.025,-0.011,-0.036,-0.007,0.030,-0.023,0.015,-0.011,0.013,-0.024,-0.001,0.003
0.024,-0.010,-0.034,-0.007,0.029,-0.022,0.014,-0.016,0.010,-0.025,0.001,0.000
0.020,-0.010,-0.030,-0.005,0.025,-0.020,0.010,-0.020,0.010,-0.025,0.005,0.000
0.016,-0.013,-0.030,-0.002,0.023,-0.021,0.010,-0.020,0.006,-0.025,0.006,0.000
0.009,-0.022,-0.031,0.006,0.020,-0.026,0.010,-0.023,0.005,-0.025,0.002,-0.003
0.002,-0.026,-0.028,0.012,0.016,-0.027,0.010,-0.026,0.003,-0.025,0.000,-0.005
0.000,-0.025,-0.025,0.013,0.013,-0.025,0.010,-0.024,-0.001,-0.025,0.000,-0.005
0.000,-0.025,-0.025,0.013,0.013,-0.025,0.010,-0.020,0.000,-0.025,0.000,-0.005
0.000,-0.025,-0.025,0.013,0.013,-0.025,0.010,-0.020,0.000,-0.029,0.000,-0.005
0.000,-0.025,-0.025,0.013,0.013,-0.025,0.007,-0.018,-0.003,-0.030,-0.003,-0.008
-0.001,-0.026,-0.026,0.014,0.013,-0.026,0.004,-0.027,-0.007,-0.030,-0.006,-0.011
-0.007,-0.031,-0.024,0.020,0.008,-0.027,0.005,-0.043,-0.011,-0.030,-0.005,-0.010
-0.010,-0.035,-0.025,0.023,0.008,-0.030,0.005,-0.045,-0.015,-0.030,-0.005,-0.010
0.011,-0.035,-0.046,0.012,0.029,-0.040,0.005,-0.045,-0.014,-0.030,-0.005,-0.010
0.014,-0.035,-0.049,0.011,0.032,-0.042,0.006,-0.045,-0.021,-0.030,-0.008,-0.013
0.009,-0.035,-0.044,0.014,0.027,-0.040,0.003,-0.045,-0.026,-0.030,-0.011,-0.016
0.009,-0.035,-0.044,0.013,0.027,-0.040,0.000,-0.045,-0.025,-0.030,-0.010,-0.015
0.005,-0.035,-0.040,0.015,0.023,-0.037,0.000,-0.045,-0.025,-0.030,-0.010,-0.015
0.005,-0.035,-0.040,0.015,0.023,-0.037,0.000,-0.045,-0.025,-0.034,-0.010,-0.015
0.006,-0.035,-0.041,0.015,0.024,-0.037,0.000,-0.045,-0.025,-0.035,-0.009,-0.015
0.003,-0.035,-0.038,0.016,0.021,-0.036,0.000,-0.045,-0.025,-0.037,-0.012,-0.014
0.000,-0.035,-0.035,0.018,0.018,-0.035,0.000,-0.045,-0.025,-0.040,-0.015,-0.016
0.000,-0.035,-0.035,0.018,0.018,-0.035,0.000,-0.045,-0.025,-0.040,-0.015,-0.025
-0.004,-0.035,-0.031,0.020,0.014,-0.033,0.000,-0.045,-0.034,-0.040,-0.015,-0.030
-0.006,-0.035,-0.029,0.020,0.012,-0.032,0.000,-0.042,-0.033,-0.039,-0.014,-0.030
-0.004,-0.035,-0.031,0.020,0.014,-0.032,0.000,-0.039,-0.029,-0.042,-0.017,-0.030
-0.006,-0.035,-0.029,0.021,0.012,-0.032,-0.001,-0.040,-0.030,-0.045,-0.020,-0.030
-0.010,-0.035,-0.025,0.023,0.008,-0.030,0.000,-0.040,-0.030,-0.040,-0.020,-0.030
-0.010,-0.035,-0.025,0.023,0.008,-0.030,0.012,-0.040,-0.030,-0.040,-0.020,-0.030
-0.013,-0.035,-0.022,0.024,0.005,-0.028,0.019,-0.040,-0.030,-0.042,-0.020,-0.030
-0.016,-0.035,-0.019,0.025,0.002,-0.027,0.020,-0.040,-0.030,-0.050,-0.020,-0.030
-0.015,-0.035,-0.020,0.025,0.003,-0.027,0.020,-0.040,-0.030,-0.055,-0.019,-0.030
-0.015,-0.035,-0.020,0.025,0.003,-0.027,0.020,-0.040,-0.030,-0.050,-0.015,-0.030
-0.019,-0.035,-0.016,0.028,-0.001,-0.025,0.020,-0.040,-0.026,-0.050,-0.015,-0.030
-0.020,-0.035,-0.015,0.028,-0.002,-0.025,0.020,-0.040,-0.025,-0.051,-0.015,-0.030
-0.022,-0.035,-0.013,0.029,-0.004,-0.024,0.020,-0.040,-0.025,-0.048,-0.015,-0.030
-0.016,-0.035,-0.019,0.026,0.002,-0.027,0.020,-0.040,-0.025,-0.045,-0.015,-0.030
0.005,-0.035,-0.040,0.015,0.023,-0.037,0.020,-0.040,-0.025,-0.045,-0.015,-0.030
0.002,-0.035,-0.037,0.017,0.020,-0.036,0.020,-0.036,-0.025,-0.045,-0.015,-0.030
-0.001,-0.035,-0.035,0.019,0.017,-0.035,0.020,-0.035,-0.025,-0.046,-0.015,-0.030
0.000,-0.034,-0.033,0.017,0.017,-0.033,0.020,-0.035,-0.025,-0.043,-0.015,-0.030
-0.008,-0.038,-0.029,0.023,0.011,-0.033,0.020,-0.035,-0.024,-0.040,-0.015,-0.030
-0.020,-0.050,-0.030,0.035,0.005,-0.040,0.020,-0.035,-0.020,-0.040,-0.015,-0.030
-0.016,-0.046,-0.031,0.031,0.008,-0.038,0.020,-0.035,-0.020,-0.040,-0.015,-0.030
-0.017,-0.044,-0.027,0.031,0.005,-0.035,0.020,-0.035,-0.020,-0.040,-0.015,-0.030
-0.020,-0.045,-0.025,0.033,0.003,-0.035,0.020,-0.035,-0.020,-0.038,-0.015,-0.030
-0.021,-0.045,-0.024,0.033,0.002,-0.035,0.020,-0.035,-0.020,-0.035,-0.015,-0.030
-0.025,-0.045,-0.020,0.035,-0.002,-0.032,0.020,-0.035,-0.020,-0.035,-0.015,-0.030
-0.026,-0.045,-0.020,0.036,-0.003,-0.032,0.020,-0.035,-0.020,-0.035,-0.015,-0.030
-0.021,-0.042,-0.021,0.032,0.000,-0.031,0.020,-0.035,-0.020,-0.032,-0.015,-0.030
-0.022,-0.039,-0.018,0.031,-0.002,-0.029,0.020,-0.035,-0.020,-0.030,-0.015,-0.030
-0.025,-0.040,-0.015,0.033,-0.005,-0.027,0.021,-0.034,-0.019,-0.030,-0.015,-0.030
-0.025,-0.040,-0.015,0.033,-0.005,-0.027,0.025,-0.030,-0.015,-0.030,-0.015,-0.030
-0.029,-0.040,-0.011,0.035,-0.009,-0.025,0.025,-0.030,-0.015,-0.030,-0.015,-0.039
-0.030,-0.040,-0.009,0.035,-0.011,-0.025,0.025,-0.030,-0.016,-0.027,-0.015,-0.038
-0.030,-0.040,-0.011,0.035,-0.010,-0.025,0.025,-0.030,-0.013,-0.024,-0.015,-0.034
-0.030,-0.039,-0.009,0.035,-0.010,-0.024,0.025,-0.029,-0.010,-0.025,-0.015,-0.035
-0.030,-0.035,-0.005,0.033,-0.012,-0.020,0.025,-0.025,-0.010,-0.025,-0.015,-0.035
-0.030,-0.035,-0.005,0.033,-0.012,-0.020,0.025,-0.025,-0.010,-0.024,-0.015,-0.035
-0.030,-0.035,-0.005,0.033,-0.012,-0.020,0.024,-0.025,-0.011,-0.032,-0.012,-0.035
-0.029,-0.035,-0.006,0.032,-0.011,-0.020,0.028,-0.025,-0.008,-0.034,-0.009,-0.035
-0.024,-0.035,-0.011,0.030,-0.006,-0.023,0.037,-0.024,-0.005,-0.029,-0.010,-0.035
-0.020,-0.035,-0.015,0.028,-0.002,-0.025,0.040,-0.020,-0.005,-0.030,-0.010,-0.035
-0.020,-0.031,-0.011,0.026,-0.005,-0.021,0.040,-0.020,-0.005,-0.030,-0.010,-0.031
-0.019,-0.030,-0.010,0.024,-0.005,-0.020,0.040,-0.020,-0.005,-0.030,-0.011,-0.030
-0.022,-0.030,-0.008,0.026,-0.007,-0.019,0.040,-0.020,-0.003,-0.028,-0.008,-0.030
-0.025,-0.030,-0.005,0.028,-0.010,-0.017,0.040,-0.020,0.000,-0.025,-0.005,-0.030
-0.025,-0.030,-0.005,0.028,-0.010,-0.017,0.040,-0.020,0.000,-0.025,-0.005,-0.030
-0.039,-0.030,0.009,0.035,-0.024,-0.011,0.040,-0.016,0.000,-0.025,-0.005,-0.030
-0.029,-0.029,0.001,0.029,-0.015,-0.014,0.040,-0.015,0.003,-0.026,-0.005,-0.030
-0.015,-0.034,-0.019,0.025,0.002,-0.026,0.040,-0.015,0.005,-0.023,-0.005,-0.030
-0.015,-0.040,-0.025,0.028,0.005,-0.032,0.040,-0.015,0.005,-0.020,-0.005,-0.029
-0.015,-0.035,-0.020,0.025,0.003,-0.027,0.040,-0.015,0.005,-0.020,-0.005,-0.025
-0.015,-0.035,-0.020,0.025,0.003,-0.027,0.040,-0.011,0.005,-0.020,-0.001,-0.025
-0.015,-0.035,-0.020,0.025,0.003,-0.027,0.037,-0.010,0.008,-0.020,0.000,-0.025
-0.015,-0.035,-0.020,0.025,0.003,-0.027,0.034,-0.010,0.010,-0.020,0.000,-0.025
-0.015,-0.035,-0.020,0.025,0.003,-0.027,0.035,-0.010,0.010,-0.019,0.000,-0.025
-0.015,-0.035,-0.020,0.025,0.003,-0.027,0.035,-0.010,0.010,-0.015,0.000,-0.025
-0.019,-0.035,-0.016,0.027,-0.001,-0.025,0.035,-0.010,0.009,-0.015,0.000,-0.025
-0.021,-0.036,-0.015,0.029,-0.003,-0.025,0.035,-0.007,0.017,-0.015,0.003,-0.025
-0.018,-0.033,-0.015,0.026,-0.001,-0.024,0.035,-0.004,0.019,-0.015,0.006,-0.025
-0.015,-0.030,-0.015,0.023,0.000,-0.022,0.036,-0.005,0.014,-0.014,0.005,-0.024
-0.015,-0.030,-0.015,0.023,0.000,-0.022,0.040,-0.005,0.015,-0.010,0.005,-0.020
-0.015,-0.030,-0.015,0.023,0.000,-0.022,0.040,-0.001,0.015,-0.010,0.005,-0.020
-0.014,-0.030,-0.016,0.023,0.001,-0.022,0.039,0.000,0.015,-0.010,0.005,-0.021
-0.017,-0.030,-0.013,0.024,-0.002,-0.021,0.044,0.000,0.015,-0.010,0.006,-0.019
-0.020,-0.030,-0.010,0.025,-0.005,-0.020,0.050,-0.001,0.015,-0.010,0.004,-0.022
-0.020,-0.030,-0.010,0.025,-0.005,-0.020,0.045,-0.005,0.015,-0.010,-0.005,-0.035
-0.020,-0.030,-0.010,0.025,-0.005,-0.020,0.045,-0.005,0.015,-0.006,-0.010,-0.036
-0.018,-0.027,-0.010,0.022,-0.003,-0.018,0.045,-0.005,0.012,-0.005,-0.007,-0.035
-0.012,-0.023,-0.010,0.018,-0.001,-0.016,0.045,-0.005,0.009,-0.005,-0.004,-0.035
-0.010,-0.019,-0.009,0.015,0.000,-0.014,0.045,-0.005,0.010,-0.005,-0.005,-0.035
-0.010,-0.015,-0.005,0.013,-0.002,-0.010,0.045,-0.005,0.010,-0.005,-0.005,-0.035
-0.006,-0.011,-0.005,0.009,-0.001,-0.007,0.041,-0.005,0.010,-0.005,-0.005,-0.035
-0.002,-0.007,-0.005,0.005,0.002,-0.006,0.040,-0.005,0.010,-0.005,-0.005,-0.035
0.002,-0.003,-0.005,0.001,0.004,-0.004,0.040,-0.005,0.010,-0.005,-0.005,-0.035
-0.003,-0.008,-0.005,0.006,0.002,-0.006,0.040,-0.005,0.010,-0.005,-0.005,-0.035
-0.020,-0.025,-0.005,0.023,-0.007,-0.015,0.040,-0.005,0.010,-0.005,-0.005,-0.035
-0.034,-0.039,-0.005,0.037,-0.014,-0.022,0.040,-0.005,0.006,-0.005,-0.001,-0.035
-0.035,-0.038,-0.003,0.036,-0.015,-0.020,0.041,-0.004,0.005,-0.002,0.000,-0.035
-0.039,-0.035,0.004,0.036,-0.021,-0.015,0.038,-0.007,0.005,0.001,0.000,-0.035
-0.036,-0.034,0.002,0.035,-0.019,-0.016,0.035,-0.010,0.005,0.000,0.000,-0.035
-0.015,-0.030,-0.015,0.023,0.000,-0.022,0.035,-0.010,0.005,0.000,0.000,-0.035
-0.018,-0.030,-0.012,0.024,-0.003,-0.021,0.035,-0.010,0.005,0.000,0.000,-0.035
-0.018,-0.027,-0.009,0.022,-0.004,-0.018,0.035,-0.010,0.005,0.000,0.000,-0.035
-0.014,-0.025,-0.011,0.019,-0.001,-0.017,0.035,-0.010,0.005,0.000,0.000,-0.035
-0.015,-0.024,-0.009,0.020,-0.003,-0.016,0.034,-0.010,0.005,0.000,0.001,-0.035
-0.015,-0.020,-0.005,0.018,-0.005,-0.012,0.030,-0.010,0.005,0.000,0.005,-0.035
-0.016,-0.020,-0.005,0.018,-0.005,-0.012,0.030,-0.010,0.009,0.000,0.005,-0.035
-0.011,-0.017,-0.006,0.015,-0.002,-0.011,0.030,-0.010,0.014,0.001,0.005,-0.035
-0.012,-0.015,-0.003,0.014,-0.004,-0.009,0.030,-0.010,0.013,-0.002,0.005,-0.035
-0.015,-0.014,0.000,0.014,-0.007,-0.006,0.030,-0.010,0.009,-0.005,0.005,-0.035
-0.010,-0.010,0.000,0.010,-0.005,-0.005,0.030,-0.010,0.010,-0.005,0.005,-0.035
-0.010,-0.010,0.000,0.010,-0.005,-0.005,0.031,-0.010,0.010,-0.005,0.005,-0.035
-0.009,-0.007,0.001,0.008,-0.005,-0.003,0.025,-0.013,0.011,-0.008,0.005,-0.035
0.002,-0.003,-0.005,0.001,0.004,-0.004,0.031,-0.018,0.008,-0.011,0.005,-0.033
0.010,-0.007,-0.018,-0.001,0.014,-0.012,0.041,-0.020,0.005,-0.010,0.004,-0.029
0.005,-0.020,-0.025,0.008,0.015,-0.022,0.035,-0.020,0.005,-0.010,0.000,-0.030
0.002,-0.031,-0.033,0.015,0.018,-0.032,0.035,-0.024,0.005,-0.014,0.000,-0.043
-0.009,-0.052,-0.042,0.031,0.017,-0.047,0.035,-0.029,0.006,-0.015,0.000,-0.043
-0.017,-0.060,-0.044,0.039,0.014,-0.052,0.035,-0.030,0.003,-0.015,0.000,-0.039
-0.014,-0.054,-0.040,0.034,0.013,-0.046,0.035,-0.030,0.000,-0.015,0.000,-0.040
-0.015,-0.055,-0.040,0.035,0.013,-0.047,0.035,-0.030,0.000,-0.015,0.000,-0.040
-0.020,-0.056,-0.036,0.038,0.009,-0.046,0.031,-0.030,0.000,-0.019,-0.004,-0.036
-0.017,-0.052,-0.034,0.035,0.009,-0.043,0.030,-0.030,0.000,-0.020,-0.005,-0.035
-0.014,-0.050,-0.036,0.032,0.011,-0.042,0.030,-0.030,0.000,-0.020,-0.005,-0.035
-0.016,-0.050,-0.034,0.033,0.009,-0.042,0.030,-0.030,-0.001,-0.020,-0.005,-0.036
-0.020,-0.050,-0.030,0.035,0.005,-0.040,0.030,-0.030,-0.005,-0.020,-0.005,-0.040
-0.021,-0.050,-0.030,0.036,0.004,-0.040,0.030,-0.029,-0.005,-0.020,-0.005,-0.039
-0.016,-0.047,-0.031,0.032,0.007,-0.038,0.031,-0.037,-0.005,-0.020,-0.005,-0.050
-0.016,-0.044,-0.028,0.031,0.006,-0.036,0.028,-0.039,-0.005,-0.020,-0.005,-0.055
-0.021,-0.045,-0.025,0.033,0.002,-0.035,0.025,-0.034,-0.006,-0.020,-0.005,-0.049
-0.020,-0.045,-0.025,0.033,0.003,-0.035,0.025,-0.035,-0.010,-0.020,-0.005,-0.050
-0.020,-0.045,-0.025,0.033,0.003,-0.035,0.025,-0.035,-0.010,-0.020,-0.005,-0.050
-0.020,-0.042,-0.022,0.031,0.001,-0.032,0.025,-0.035,-0.010,-0.019,-0.005,-0.050
-0.020,-0.039,-0.019,0.030,-0.001,-0.029,0.025,-0.035,-0.010,-0.022,-0.005,-0.050
-0.020,-0.040,-0.021,0.030,0.001,-0.031,0.024,-0.035,-0.010,-0.025,-0.006,-0.050
-0.020,-0.040,-0.020,0.030,0.000,-0.030,0.020,-0.035,-0.010,-0.025,-0.010,-0.050
-0.026,-0.036,-0.010,0.031,-0.008,-0.022,0.020,-0.035,-0.014,-0.025,-0.010,-0.050
-0.013,-0.035,-0.022,0.024,0.005,-0.028,0.020,-0.035,-0.016,-0.025,-0.009,-0.050
-0.004,-0.035,-0.031,0.020,0.014,-0.032,0.020,-0.035,-0.013,-0.024,-0.012,-0.050
-0.002,-0.035,-0.033,0.019,0.016,-0.034,0.020,-0.035,-0.010,-0.018,-0.007,-0.050
0.015,-0.035,-0.050,0.010,0.033,-0.042,0.020,-0.035,-0.010,-0.015,0.005,-0.050
0.016,-0.031,-0.047,0.008,0.032,-0.038,0.020,-0.035,-0.010,-0.032,-0.012,-0.050
0.011,-0.029,-0.041,0.009,0.026,-0.035,0.017,-0.035,-0.009,-0.034,-0.014,-0.047
0.010,-0.030,-0.040,0.010,0.025,-0.035,0.014,-0.035,-0.014,-0.029,-0.009,-0.044
0.010,-0.029,-0.039,0.010,0.025,-0.034,0.015,-0.035,-0.021,-0.030,-0.010,-0.045
0.005,-0.030,-0.035,0.013,0.020,-0.032,0.015,-0.035,-0.020,-0.030,-0.010,-0.045
-0.009,-0.039,-0.030,0.024,0.011,-0.035,0.011,-0.035,-0.020,-0.030,-0.010,-0.045
-0.005,-0.035,-0.030,0.020,0.013,-0.033,0.010,-0.035,-0.020,-0.031,-0.010,-0.045
0.001,-0.027,-0.028,0.013,0.015,-0.027,0.008,-0.035,-0.020,-0.028,-0.010,-0.045
0.000,-0.025,-0.025,0.013,0.013,-0.025,0.013,-0.035,-0.020,-0.025,-0.010,-0.045
-0.005,-0.030,-0.025,0.018,0.010,-0.027,0.030,-0.035,-0.020,-0.025,-0.010,-0.045
-0.022,-0.047,-0.025,0.035,0.002,-0.035,0.027,-0.035,-0.020,-0.025,-0.010,-0.045
-0.027,-0.052,-0.025,0.040,-0.001,-0.038,0.024,-0.035,-0.020,-0.025,-0.010,-0.045
-0.024,-0.049,-0.025,0.037,0.000,-0.037,0.025,-0.035,-0.020,-0.025,-0.010,-0.045
-0.025,-0.050,-0.025,0.038,0.000,-0.037,0.025,-0.035,-0.020,-0.025,-0.010,-0.045
-0.025,-0.050,-0.025,0.038,0.000,-0.037,0.025,-0.035,-0.020,-0.025,-0.010,-0.045
-0.025,-0.050,-0.025,0.038,0.000,-0.037,0.025,-0.035,-0.020,-0.021,-0.006,-0.042
-0.025,-0.050,-0.025,0.038,0.000,-0.037,0.022,-0.034,-0.020,-0.020,-0.005,-0.034
-0.025,-0.050,-0.025,0.038,0.000,-0.037,0.019,-0.039,-0.020,-0.020,-0.005,-0.043
-0.026,-0.050,-0.024,0.038,-0.001,-0.037,0.020,-0.045,-0.020,-0.020,-0.005,-0.056
-0.025,-0.050,-0.025,0.038,0.000,-0.037,0.020,-0.040,-0.020,-0.020,-0.005,-0.050
-0.012,-0.050,-0.038,0.031,0.013,-0.044,0.020,-0.040,-0.020,-0.020,-0.005,-0.050
-0.009,-0.050,-0.041,0.029,0.016,-0.046,0.020,-0.040,-0.020,-0.017,-0.005,-0.050
-0.010,-0.050,-0.040,0.030,0.015,-0.045,0.020,-0.040,-0.020,-0.014,-0.005,-0.050
-0.010,-0.050,-0.040,0.030,0.015,-0.045,0.019,-0.040,-0.020,-0.015,-0.005,-0.050
-0.010,-0.050,-0.040,0.030,0.015,-0.045,0.015,-0.040,-0.020,-0.015,-0.005,-0.050
-0.010,-0.050,-0.040,0.030,0.015,-0.045,0.015,-0.040,-0.029,-0.015,-0.005,-0.050
-0.010,-0.050,-0.040,0.030,0.015,-0.045,0.015,-0.040,-0.028,-0.015,-0.005,-0.051
-0.010,-0.050,-0.040,0.030,0.015,-0.045,0.015,-0.040,-0.024,-0.015,-0.005,-0.048
-0.010,-0.050,-0.040,0.030,0.015,-0.045,0.015,-0.040,-0.025,-0.016,-0.006,-0.045
-0.010,-0.050,-0.040,0.030,0.015,-0.045,0.015,-0.040,-0.025,-0.020,-0.010,-0.045
-0.010,-0.050,-0.040,0.030,0.015,-0.045,0.011,-0.040,-0.025,-0.020,-0.010,-0.045
-0.010,-0.050,-0.040,0.030,0.015,-0.045,0.010,-0.041,-0.025,-0.024,-0.013,-0.045
-0.010,-0.050,-0.040,0.030,0.015,-0.045,0.010,-0.038,-0.025,-0.023,-0.016,-0.045
-0.010,-0.050,-0.040,0.030,0.015,-0.045,0.010,-0.035,-0.025,-0.020,-0.015,-0.045
-0.010,-0.050,-0.040,0.030,0.015,-0.045,0.010,-0.035,-0.025,-0.020,-0.015,-0.045
-0.010,-0.050,-0.040,0.030,0.015,-0.045,0.010,-0.035,-0.025,-0.014,-0.015,-0.045
-0.010,-0.050,-0.040,0.030,0.015,-0.045,0.010,-0.035,-0.025,-0.027,-0.015,-0.042
-0.011,-0.051,-0.040,0.031,0.014,-0.046,0.012,-0.035,-0.025,-0.035,-0.015,-0.039
-0.008,-0.048,-0.040,0.028,0.016,-0.044,0.016,-0.035,-0.025,-0.029,-0.015,-0.040
0.010,-0.030,-0.040,0.010,0.025,-0.035,0.015,-0.035,-0.025,-0.030,-0.015,-0.040
0.025,-0.015,-0.040,-0.005,0.033,-0.027,0.009,-0.035,-0.025,-0.030,-0.015,-0.040
0.013,-0.027,-0.040,0.007,0.026,-0.033,0.019,-0.035,-0.025,-0.030,-0.015,-0.040
-0.012,-0.053,-0.041,0.032,0.015,-0.047,0.025,-0.035,-0.025,-0.030,-0.015,-0.040
-0.027,-0.066,-0.038,0.047,0.006,-0.051,0.019,-0.035,-0.025,-0.029,-0.015,-0.040
-0.035,-0.060,-0.025,0.048,-0.005,-0.042,0.020,-0.035,-0.025,-0.025,-0.015,-0.040
-0.047,-0.059,-0.013,0.054,-0.017,-0.036,0.020,-0.035,-0.025,-0.025,-0.015,-0.040
-0.024,-0.061,-0.037,0.043,0.006,-0.049,0.020,-0.034,-0.025,-0.025,-0.015,-0.043
-0.006,-0.058,-0.052,0.032,0.023,-0.055,0.020,-0.038,-0.025,-0.025,-0.015,-0.046
-0.011,-0.055,-0.044,0.033,0.017,-0.049,0.020,-0.047,-0.025,-0.025,-0.015,-0.052
-0.010,-0.055,-0.045,0.033,0.018,-0.050,0.020,-0.050,-0.025,-0.025,-0.015,-0.060
-0.009,-0.055,-0.046,0.033,0.019,-0.050,0.020,-0.050,-0.025,-0.025,-0.015,-0.056
-0.014,-0.056,-0.042,0.035,0.015,-0.048,0.020,-0.050,-0.025,-0.022,-0.015,-0.054
-0.014,-0.053,-0.040,0.033,0.013,-0.046,0.020,-0.050,-0.025,-0.019,-0.015,-0.055
-0.010,-0.050,-0.040,0.030,0.015,-0.045,0.020,-0.050,-0.026,-0.020,-0.015,-0.055
-0.010,-0.050,-0.040,0.030,0.015,-0.045,0.020,-0.050,-0.030,-0.020,-0.015,-0.055
-0.010,-0.050,-0.040,0.030,0.015,-0.045,0.020,-0.050,-0.030,-0.020,-0.015,-0.055
-0.014,-0.050,-0.037,0.032,0.012,-0.043,0.020,-0.050,-0.030,-0.021,-0.015,-0.055
-0.014,-0.048,-0.034,0.031,0.011,-0.041,0.020,-0.050,-0.030,-0.018,-0.015,-0.055
-0.009,-0.045,-0.035,0.027,0.013,-0.040,0.020,-0.050,-0.030,-0.015,-0.015,-0.055
-0.010,-0.045,-0.035,0.028,0.013,-0.040,0.020,-0.050,-0.030,-0.015,-0.015,-0.055
-0.010,-0.045,-0.035,0.028,0.013,-0.040,0.020,-0.050,-0.030,-0.015,-0.015,-0.055
-0.010,-0.042,-0.032,0.026,0.011,-0.037,0.020,-0.050,-0.027,-0.015,-0.015,-0.055
-0.010,-0.040,-0.029,0.025,0.010,-0.034,0.020,-0.050,-0.024,-0.015,-0.015,-0.055
-0.010,-0.040,-0.030,0.025,0.010,-0.035,0.020,-0.050,-0.025,-0.015,-0.015,-0.054
-0.010,-0.040,-0.030,0.025,0.010,-0.035,0.020,-0.050,-0.025,-0.015,-0.015,-0.050
-0.015,-0.040,-0.026,0.028,0.006,-0.033,0.020,-0.050,-0.025,-0.019,-0.015,-0.050
-0.012,-0.037,-0.025,0.025,0.006,-0.031,0.020,-0.050,-0.025,-0.020,-0.015,-0.050
-0.009,-0.034,-0.025,0.022,0.008,-0.030,0.020,-0.050,-0.025,-0.020,-0.015,-0.050
-0.010,-0.035,-0.025,0.023,0.008,-0.030,0.020,-0.050,-0.025,-0.020,-0.015,-0.050
-0.010,-0.035,-0.025,0.023,0.008,-0.030,0.020,-0.050,-0.025,-0.020,-0.015,-0.050
-0.015,-0.035,-0.021,0.025,0.004,-0.028,0.016,-0.050,-0.025,-0.020,-0.015,-0.050
-0.013,-0.032,-0.019,0.022,0.004,-0.026,0.015,-0.050,-0.026,-0.021,-0.015,-0.050
-0.008,-0.028,-0.020,0.018,0.006,-0.025,0.015,-0.050,-0.023,-0.018,-0.015,-0.050
-0.012,-0.032,-0.019,0.022,0.003,-0.026,0.015,-0.050,-0.020,-0.015,-0.015,-0.050
-0.020,-0.040,-0.020,0.030,0.000,-0.030,0.015,-0.050,-0.020,-0.015,-0.015,-0.050
-0.007,-0.036,-0.029,0.022,0.011,-0.032,0.015,-0.050,-0.020,-0.015,-0.015,-0.050
-0.007,-0.034,-0.028,0.021,0.011,-0.031,0.015,-0.047,-0.020,-0.013,-0.015,-0.050
-0.011,-0.035,-0.024,0.024,0.007,-0.030,0.015,-0.044,-0.020,-0.021,-0.015,-0.049
-0.010,-0.035,-0.025,0.023,0.008,-0.030,0.015,-0.045,-0.020,-0.030,-0.015,-0.044
-0.010,-0.035,-0.025,0.023,0.008,-0.030,0.015,-0.045,-0.020,-0.025,-0.015,-0.045
-0.010,-0.035,-0.025,0.023,0.008,-0.030,0.015,-0.041,-0.020,-0.025,-0.015,-0.062
-0.007,-0.032,-0.025,0.020,0.009,-0.028,0.015,-0.040,-0.021,-0.025,-0.015,-0.067
-0.005,-0.029,-0.025,0.018,0.010,-0.027,0.015,-0.038,-0.018,-0.025,-0.015,-0.064
-0.005,-0.030,-0.025,0.018,0.010,-0.027,0.015,-0.043,-0.024,-0.025,-0.015,-0.065
-0.005,-0.030,-0.025,0.018,0.010,-0.027,0.015,-0.060,-0.040,-0.025,-0.015,-0.065
-0.009,-0.030,-0.021,0.020,0.006,-0.025,0.015,-0.057,-0.037,-0.025,-0.015,-0.065
-0.010,-0.029,-0.020,0.019,0.005,-0.024,0.015,-0.054,-0.034,-0.025,-0.015,-0.065
-0.013,-0.033,-0.020,0.023,0.004,-0.026,0.015,-0.055,-0.035,-0.025,-0.015,-0.065
-0.023,-0.043,-0.020,0.033,-0.001,-0.031,0.015,-0.055,-0.035,-0.025,-0.014,-0.065
-0.030,-0.050,-0.020,0.040,-0.005,-0.035,0.015,-0.055,-0.035,-0.025,-0.010,-0.065
-0.026,-0.046,-0.020,0.036,-0.003,-0.033,0.015,-0.055,-0.035,-0.025,-0.010,-0.065
-0.024,-0.044,-0.021,0.034,-0.001,-0.032,0.015,-0.055,-0.035,-0.026,-0.010,-0.065
-0.027,-0.045,-0.018,0.036,-0.004,-0.031,0.015,-0.055,-0.035,-0.023,-0.010,-0.065
-0.022,-0.045,-0.023,0.034,0.001,-0.034,0.015,-0.055,-0.035,-0.020,-0.010,-0.065
-0.015,-0.045,-0.030,0.030,0.008,-0.037,0.015,-0.055,-0.035,-0.020,-0.010,-0.065
-0.034,-0.041,-0.006,0.038,-0.014,-0.023,0.015,-0.055,-0.035,-0.020,-0.010,-0.065
-0.015,-0.040,-0.025,0.027,0.005,-0.032,0.014,-0.055,-0.035,-0.020,-0.010,-0.065
0.002,-0.040,-0.043,0.019,0.022,-0.041,0.017,-0.055,-0.035,-0.020,-0.010,-0.065
-0.006,-0.040,-0.034,0.024,0.014,-0.036,0.020,-0.054,-0.035,-0.020,-0.010,-0.065
-0.005,-0.040,-0.035,0.023,0.015,-0.037,0.020,-0.050,-0.035,-0.020,-0.010,-0.065
-0.010,-0.040,-0.031,0.025,0.011,-0.036,0.020,-0.050,-0.035,-0.020,-0.006,-0.065
-0.007,-0.037,-0.030,0.022,0.012,-0.033,0.020,-0.050,-0.035,-0.020,-0.005,-0.065
-0.006,-0.034,-0.028,0.021,0.011,-0.031,0.020,-0.050,-0.035,-0.020,-0.005,-0.065
-0.010,-0.035,-0.025,0.023,0.008,-0.030,0.020,-0.050,-0.035,-0.020,-0.005,-0.065
-0.010,-0.035,-0.025,0.023,0.008,-0.030,0.020,-0.050,-0.035,-0.020,-0.005,-0.065
-0.015,-0.035,-0.021,0.025,0.004,-0.028,0.020,-0.050,-0.035,-0.020,-0.005,-0.065
-0.012,-0.032,-0.020,0.022,0.004,-0.026,0.020,-0.050,-0.035,-0.019,-0.005,-0.065
-0.010,-0.029,-0.019,0.020,0.004,-0.024,0.020,-0.050,-0.035,-0.024,-0.005,-0.065
-0.017,-0.030,-0.013,0.024,-0.002,-0.021,0.020,-0.050,-0.035,-0.030,-0.005,-0.064
-0.015,-0.030,-0.015,0.023,0.000,-0.022,0.020,-0.050,-0.035,-0.025,-0.005,-0.060
0.015,-0.030,-0.045,0.008,0.030,-0.037,0.020,-0.050,-0.035,-0.025,-0.004,-0.060
0.018,-0.030,-0.047,0.006,0.032,-0.039,0.020,-0.050,-0.036,-0.022,-0.012,-0.061
0.005,-0.031,-0.036,0.013,0.021,-0.033,0.021,-0.048,-0.033,-0.020,-0.012,-0.058
0.007,-0.028,-0.035,0.011,0.021,-0.031,0.019,-0.044,-0.030,-0.019,-0.004,-0.055
0.000,-0.030,-0.030,0.015,0.015,-0.030,0.020,-0.040,-0.030,-0.015,0.000,-0.055
-0.051,-0.073,-0.022,0.062,-0.015,-0.047,0.042,-0.036,-0.026,-0.015,0.021,-0.055
-0.060,-0.076,-0.016,0.068,-0.021,-0.046,0.039,-0.032,-0.025,-0.016,0.024,-0.052
-0.045,-0.059,-0.015,0.052,-0.014,-0.037,0.023,-0.027,-0.023,-0.013,0.019,-0.049
-0.047,-0.053,-0.006,0.049,-0.020,-0.029,0.022,-0.025,-0.020,-0.010,0.020,-0.050
-0.045,-0.040,0.005,0.042,-0.025,-0.017,0.040,-0.025,-0.020,-0.010,0.020,-0.050
-0.016,-0.032,-0.016,0.024,0.000,-0.024,0.054,-0.015,-0.016,-0.006,0.020,-0.046
-0.001,-0.021,-0.020,0.012,0.010,-0.021,0.053,-0.027,-0.015,-0.005,0.017,-0.044
0.002,-0.010,-0.012,0.004,0.008,-0.011,0.050,-0.036,-0.015,-0.003,0.014,-0.046
0.005,-0.004,-0.009,-0.001,0.008,-0.006,0.049,-0.029,-0.015,0.001,0.015,-0.044
0.005,0.000,-0.005,-0.002,0.005,-0.002,0.045,-0.030,-0.015,0.000,0.015,-0.040
0.005,0.004,-0.001,-0.004,0.003,0.001,0.045,-0.031,-0.011,0.000,0.015,-0.040
0.005,0.009,0.004,-0.008,0.000,0.006,0.042,-0.027,-0.010,0.003,0.015,-0.041
0.005,0.008,0.003,-0.007,0.001,0.005,0.040,-0.024,-0.010,0.006,0.015,-0.038
0.006,0.015,0.009,-0.011,-0.002,0.012,0.039,-0.025,-0.010,0.005,0.014,-0.035
0.010,0.040,0.030,-0.025,-0.010,0.035,0.035,-0.025,-0.010,0.005,0.015,-0.035
0.014,0.035,0.020,-0.025,-0.003,0.027,0.035,-0.021,-0.006,0.005,0.028,-0.034
0.015,0.018,0.003,-0.017,0.006,0.010,0.032,-0.019,-0.005,0.005,0.026,-0.042
0.015,0.034,0.019,-0.025,-0.002,0.026,0.030,-0.021,-0.005,0.004,0.017,-0.044
0.005,0.047,0.042,-0.026,-0.018,0.044,0.029,-0.019,-0.005,0.006,0.015,-0.039
-0.025,0.005,0.030,0.010,-0.028,0.017,0.025,-0.015,-0.005,0.015,0.020,-0.040
-0.052,-0.031,0.021,0.042,-0.036,-0.005,0.025,-0.015,-0.005,0.024,0.037,-0.041
-0.049,-0.032,0.017,0.040,-0.033,-0.007,0.022,-0.016,-0.002,0.022,0.038,-0.038
-0.031,-0.020,0.012,0.025,-0.021,-0.004,0.020,-0.013,0.001,0.020,0.034,-0.048
-0.017,-0.014,0.003,0.015,-0.009,-0.006,0.019,-0.010,0.000,0.019,0.034,-0.060
-0.005,-0.010,-0.005,0.008,0.000,-0.007,0.015,-0.010,0.000,0.015,0.030,-0.050
0.007,-0.002,-0.009,-0.002,0.008,-0.005,0.015,-0.011,0.000,0.015,0.030,-0.042
0.020,0.005,-0.015,-0.012,0.017,-0.005,0.012,-0.007,0.003,0.013,0.028,-0.034
0.028,0.017,-0.011,-0.022,0.019,0.003,0.009,-0.005,0.006,0.007,0.022,-0.026
0.030,0.007,-0.023,-0.018,0.026,-0.008,0.010,-0.005,0.005,0.014,0.030,-0.018
0.030,-0.035,-0.065,0.003,0.048,-0.050,0.010,-0.005,0.005,0.035,0.055,-0.010
0.034,-0.029,-0.063,-0.002,0.049,-0.046,0.006,-0.013,0.005,0.032,0.053,-0.005
0.039,-0.020,-0.059,-0.009,0.049,-0.039,0.005,-0.021,0.006,0.026,0.046,-0.012
0.040,-0.019,-0.058,-0.010,0.049,-0.039,0.003,-0.029,0.001,0.023,0.045,-0.028
0.041,-0.014,-0.055,-0.013,0.048,-0.034,-0.001,-0.036,-0.006,0.019,0.044,-0.034
0.045,-0.010,-0.055,-0.017,0.050,-0.032,0.000,-0.040,-0.010,0.015,0.040,-0.025
0.045,-0.006,-0.051,-0.019,0.048,-0.028,0.000,-0.044,-0.014,0.011,0.040,-0.021
0.049,-0.002,-0.051,-0.023,0.050,-0.026,-0.003,-0.045,-0.016,0.007,0.037,-0.017
0.048,0.003,-0.045,-0.026,0.046,-0.021,-0.006,-0.045,-0.014,0.003,0.035,-0.013
0.045,0.022,-0.023,-0.033,0.034,0.000,-0.004,-0.045,-0.016,-0.001,0.035,-0.009
0.045,0.030,-0.015,-0.037,0.030,0.007,0.005,-0.045,-0.015,0.000,0.030,-0.005
0.033,-0.029,-0.061,-0.002,0.047,-0.045,0.015,-0.050,0.007,0.022,0.025,0.001
0.028,-0.041,-0.069,0.006,0.049,-0.055,0.010,-0.049,-0.001,0.021,0.025,-0.012
0.032,-0.024,-0.056,-0.004,0.044,-0.039,0.002,-0.056,-0.028,0.012,0.023,-0.037
0.036,-0.019,-0.055,-0.008,0.045,-0.036,-0.001,-0.065,-0.041,0.009,0.020,-0.052
0.040,-0.010,-0.050,-0.015,0.045,-0.030,-0.005,-0.060,-0.040,0.005,0.020,-0.050
0.040,-0.002,-0.041,-0.019,0.041,-0.022,-0.013,-0.060,-0.040,0.001,0.016,-0.050
0.043,0.004,-0.039,-0.023,0.041,-0.017,-0.018,-0.057,-0.040,-0.002,0.014,-0.050
0.046,0.019,-0.027,-0.032,0.036,-0.003,-0.022,-0.055,-0.040,-0.009,0.017,-0.050
0.044,0.003,-0.041,-0.024,0.042,-0.018,-0.026,-0.054,-0.040,-0.006,0.030,-0.050
0.045,-0.050,-0.095,0.003,0.070,-0.072,-0.025,-0.050,-0.040,0.010,0.050,-0.050
0.070,-0.020,-0.090,-0.025,0.081,-0.055,-0.024,-0.050,-0.039,-0.008,0.047,-0.049
0.109,0.032,-0.077,-0.070,0.093,-0.023,-0.035,-0.047,-0.047,-0.030,0.042,-0.056
0.101,0.030,-0.071,-0.065,0.086,-0.020,-0.040,-0.045,-0.049,-0.036,0.038,-0.063
0.046,-0.017,-0.064,-0.014,0.055,-0.040,-0.034,-0.045,-0.044,-0.035,0.035,-0.065
0.010,-0.050,-0.060,0.020,0.035,-0.055,-0.030,-0.040,-0.045,-0.035,0.035,-0.065
0.008,-0.048,-0.056,0.020,0.033,-0.052,-0.026,-0.037,-0.046,-0.035,0.031,-0.065
0.011,-0.041,-0.052,0.015,0.032,-0.046,-0.025,-0.062,-0.042,-0.035,0.026,-0.066
0.008,-0.040,-0.048,0.016,0.028,-0.044,-0.024,-0.077,-0.040,-0.035,0.025,-0.063
0.005,-0.039,-0.044,0.018,0.024,-0.041,-0.019,-0.069,-0.040,-0.035,0.024,-0.060
0.005,-0.035,-0.040,0.015,0.023,-0.037,-0.015,-0.070,-0.040,-0.035,0.020,-0.060
0.005,-0.032,-0.036,0.014,0.020,-0.033,-0.015,-0.070,-0.040,-0.031,0.016,-0.060
0.007,-0.025,-0.032,0.010,0.020,-0.028,-0.013,-0.070,-0.037,-0.028,0.015,-0.059
-0.002,-0.045,-0.043,0.024,0.020,-0.044,-0.008,-0.070,-0.034,-0.036,0.014,-0.065
-0.008,-0.056,-0.048,0.032,0.020,-0.052,-0.005,-0.070,-0.035,-0.046,0.009,-0.077
0.005,-0.035,-0.040,0.015,0.023,-0.037,-0.005,-0.070,-0.035,-0.045,0.005,-0.080
-0.003,-0.076,-0.073,0.039,0.036,-0.074,-0.005,-0.070,-0.031,-0.045,0.001,-0.078
-0.006,-0.087,-0.080,0.047,0.037,-0.083,-0.003,-0.070,-0.029,-0.045,-0.004,-0.093
-0.004,-0.078,-0.074,0.041,0.035,-0.075,-0.011,-0.070,-0.030,-0.045,-0.005,-0.100
-0.006,-0.081,-0.075,0.044,0.034,-0.077,-0.020,-0.070,-0.030,-0.045,-0.006,-0.094
-0.010,-0.080,-0.070,0.045,0.030,-0.075,-0.015,-0.070,-0.030,-0.045,-0.010,-0.095
-0.006,-0.076,-0.070,0.041,0.033,-0.073,-0.015,-0.070,-0.041,-0.045,-0.014,-0.095
-0.008,-0.075,-0.067,0.042,0.030,-0.071,-0.016,-0.070,-0.056,-0.045,-0.018,-0.095
-0.010,-0.075,-0.065,0.043,0.028,-0.070,-0.013,-0.070,-0.059,-0.045,-0.022,-0.095
-0.011,-0.075,-0.064,0.043,0.027,-0.070,-0.010,-0.070,-0.054,-0.045,-0.026,-0.095
-0.015,-0.075,-0.060,0.045,0.023,-0.067,-0.010,-0.070,-0.055,-0.045,-0.025,-0.095
-0.011,-0.071,-0.060,0.041,0.025,-0.065,-0.010,-0.070,-0.055,-0.045,-0.020,-0.095
-0.013,-0.069,-0.057,0.041,0.022,-0.063,-0.011,-0.070,-0.055,-0.048,-0.028,-0.092
-0.016,-0.071,-0.055,0.044,0.020,-0.062,-0.008,-0.070,-0.055,-0.051,-0.039,-0.089
-0.015,-0.069,-0.054,0.042,0.020,-0.061,-0.005,-0.070,-0.055,-0.050,-0.040,-0.090
-0.015,-0.065,-0.050,0.040,0.018,-0.057,-0.005,-0.070,-0.055,-0.050,-0.040,-0.090
-0.015,-0.065,-0.050,0.040,0.018,-0.057,-0.005,-0.070,-0.055,-0.050,-0.040,-0.090
-0.018,-0.065,-0.047,0.042,0.015,-0.056,-0.005,-0.070,-0.055,-0.050,-0.040,-0.090
-0.020,-0.064,-0.045,0.043,0.013,-0.055,-0.003,-0.070,-0.055,-0.050,-0.040,-0.090
-0.021,-0.066,-0.045,0.044,0.012,-0.055,0.000,-0.070,-0.055,-0.050,-0.040,-0.090
-0.025,-0.070,-0.045,0.048,0.010,-0.057,0.000,-0.070,-0.055,-0.050,-0.040,-0.090
-0.016,-0.068,-0.052,0.042,0.018,-0.059,0.000,-0.066,-0.055,-0.050,-0.040,-0.089
