I,II,III,aVR,aVL,aVF,V1,V2,V3,V4,V5,V6
0.050,0.040,-0.010,-0.045,0.030,0.015,0.320,0.850,0.310,0.105,0.090,0.000
0.050,0.040,-0.010,-0.045,0.030,0.015,0.320,0.850,0.310,0.105,0.090,0.000
0.050,0.040,-0.010,-0.045,0.030,0.015,0.320,0.850,0.310,0.105,0.090,0.000
0.050,0.040,-0.010,-0.045,0.030,0.015,0.320,0.850,0.310,0.105,0.090,0.000
0.050,0.040,-0.010,-0.045,0.030,0.015,0.320,0.850,0.310,0.105,0.090,0.000
0.050,0.040,-0.010,-0.045,0.030,0.015,0.320,0.850,0.310,0.105,0.090,0.000
0.058,0.048,-0.010,-0.053,0.034,0.019,0.320,0.846,0.308,0.108,0.094,0.008
0.064,0.054,-0.011,-0.059,0.037,0.021,0.317,0.845,0.322,0.119,0.101,0.013
0.065,0.057,-0.008,-0.060,0.036,0.024,0.315,0.843,0.334,0.130,0.109,0.019
0.075,0.071,-0.005,-0.072,0.039,0.033,0.314,0.840,0.335,0.136,0.117,0.026
0.100,0.095,-0.005,-0.097,0.052,0.045,0.310,0.840,0.335,0.140,0.120,0.030
0.106,0.101,-0.005,-0.103,0.055,0.047,0.309,0.824,0.335,0.144,0.119,0.034
0.104,0.099,-0.005,-0.101,0.054,0.046,0.312,0.811,0.335,0.148,0.125,0.038
0.108,0.103,-0.005,-0.105,0.057,0.049,0.303,0.797,0.335,0.151,0.133,0.042
0.117,0.112,-0.005,-0.114,0.061,0.053,0.286,0.782,0.335,0.149,0.134,0.046
0.120,0.115,-0.005,-0.117,0.062,0.055,0.275,0.770,0.335,0.145,0.130,0.050
0.116,0.115,-0.001,-0.115,0.058,0.057,0.263,0.735,0.323,0.145,0.130,0.046
0.114,0.115,0.000,-0.115,0.057,0.057,0.251,0.697,0.311,0.142,0.130,0.045
0.115,0.115,0.000,-0.115,0.057,0.057,0.237,0.665,0.299,0.140,0.130,0.043
0.115,0.115,0.000,-0.115,0.057,0.057,0.222,0.638,0.287,0.139,0.130,0.040
0.115,0.115,0.000,-0.115,0.057,0.057,0.210,0.610,0.275,0.135,0.130,0.040
0.116,0.116,0.000,-0.116,0.058,0.057,0.198,0.582,0.259,0.136,0.130,0.036
0.108,0.109,0.001,-0.109,0.053,0.054,0.186,0.555,0.246,0.127,0.130,0.034
0.106,0.102,-0.003,-0.104,0.054,0.049,0.174,0.524,0.234,0.115,0.130,0.036
0.111,0.099,-0.012,-0.105,0.062,0.043,0.163,0.492,0.222,0.108,0.130,0.034
0.115,0.095,-0.020,-0.105,0.067,0.037,0.150,0.460,0.210,0.100,0.130,0.030
0.119,0.091,-0.028,-0.105,0.073,0.031,0.123,0.417,0.190,0.088,0.131,0.030
0.123,0.087,-0.036,-0.105,0.079,0.025,0.095,0.371,0.169,0.078,0.122,0.027
0.128,0.084,-0.044,-0.106,0.086,0.019,0.078,0.331,0.151,0.071,0.110,0.025
0.129,0.078,-0.052,-0.103,0.090,0.013,0.067,0.297,0.136,0.062,0.103,0.024
0.120,0.065,-0.055,-0.092,0.087,0.005,0.055,0.265,0.120,0.050,0.095,0.020
0.108,0.057,-0.051,-0.082,0.079,0.002,0.047,0.233,0.096,0.038,0.087,0.020
0.099,0.050,-0.050,-0.074,0.074,0.000,0.037,0.200,0.071,0.025,0.079,0.021
0.089,0.039,-0.050,-0.064,0.069,-0.005,0.024,0.172,0.051,0.016,0.072,0.016
0.077,0.027,-0.050,-0.052,0.064,-0.011,0.013,0.150,0.037,0.007,0.061,0.009
0.070,0.020,-0.050,-0.045,0.060,-0.015,0.005,0.130,0.025,-0.010,0.045,0.005
0.063,0.013,-0.050,-0.038,0.056,-0.019,-0.003,0.098,0.001,-0.026,0.033,-0.003
0.049,-0.002,-0.050,-0.023,0.049,-0.026,-0.011,0.068,-0.020,-0.042,0.018,-0.008
0.032,-0.016,-0.049,-0.008,0.041,-0.032,-0.019,0.043,-0.041,-0.057,0.003,-0.014
0.024,-0.029,-0.053,0.002,0.039,-0.040,-0.027,0.020,-0.058,-0.067,-0.007,-0.021
0.025,-0.045,-0.070,0.010,0.048,-0.057,-0.035,0.000,-0.065,-0.075,-0.015,-0.025
0.026,-0.057,-0.084,0.016,0.055,-0.070,-0.043,-0.016,-0.081,-0.095,-0.023,-0.042
0.016,-0.067,-0.083,0.026,0.049,-0.075,-0.048,-0.032,-0.095,-0.108,-0.028,-0.047
0.007,-0.072,-0.079,0.033,0.043,-0.076,-0.052,-0.048,-0.106,-0.111,-0.033,-0.042
0.004,-0.076,-0.080,0.036,0.043,-0.078,-0.056,-0.063,-0.118,-0.119,-0.042,-0.049
0.000,-0.080,-0.080,0.040,0.040,-0.080,-0.060,-0.075,-0.130,-0.135,-0.050,-0.070
-0.004,-0.084,-0.080,0.044,0.038,-0.082,-0.064,-0.091,-0.142,-0.139,-0.054,-0.075
-0.008,-0.088,-0.080,0.048,0.036,-0.084,-0.065,-0.108,-0.154,-0.149,-0.061,-0.077
-0.012,-0.092,-0.080,0.052,0.034,-0.086,-0.067,-0.120,-0.165,-0.159,-0.068,-0.083
-0.007,-0.087,-0.080,0.047,0.037,-0.083,-0.070,-0.126,-0.171,-0.160,-0.071,-0.085
0.000,-0.080,-0.080,0.040,0.040,-0.080,-0.070,-0.130,-0.175,-0.160,-0.075,-0.085
-0.025,-0.105,-0.080,0.065,0.027,-0.093,-0.070,-0.133,-0.177,-0.167,-0.083,-0.093
-0.030,-0.110,-0.080,0.070,0.025,-0.095,-0.070,-0.148,-0.195,-0.183,-0.089,-0.098
-0.024,-0.104,-0.080,0.064,0.029,-0.091,-0.070,-0.157,-0.210,-0.194,-0.090,-0.102
-0.025,-0.105,-0.080,0.065,0.028,-0.092,-0.070,-0.154,-0.210,-0.195,-0.091,-0.105
-0.025,-0.105,-0.080,0.065,0.028,-0.092,-0.070,-0.155,-0.210,-0.195,-0.095,-0.105
-0.025,-0.105,-0.080,0.065,0.028,-0.092,-0.074,-0.167,-0.214,-0.199,-0.099,-0.105
-0.026,-0.106,-0.080,0.066,0.027,-0.093,-0.079,-0.175,-0.214,-0.200,-0.103,-0.108
-0.039,-0.119,-0.080,0.079,0.021,-0.099,-0.078,-0.173,-0.218,-0.201,-0.107,-0.111
-0.051,-0.131,-0.080,0.091,0.015,-0.105,-0.074,-0.178,-0.226,-0.206,-0.111,-0.110
-0.045,-0.125,-0.080,0.085,0.018,-0.102,-0.075,-0.195,-0.230,-0.210,-0.115,-0.110
-0.044,-0.124,-0.080,0.084,0.018,-0.102,-0.075,-0.192,-0.234,-0.214,-0.119,-0.118
-0.046,-0.126,-0.080,0.086,0.018,-0.102,-0.075,-0.189,-0.235,-0.215,-0.123,-0.124
-0.043,-0.123,-0.080,0.083,0.019,-0.101,-0.076,-0.190,-0.237,-0.215,-0.125,-0.123
-0.040,-0.120,-0.080,0.080,0.020,-0.100,-0.074,-0.190,-0.241,-0.215,-0.125,-0.120
-0.040,-0.120,-0.080,0.080,0.020,-0.100,-0.075,-0.190,-0.240,-0.215,-0.125,-0.120
-0.041,-0.120,-0.080,0.081,0.020,-0.100,-0.092,-0.190,-0.236,-0.215,-0.125,-0.120
-0.036,-0.117,-0.081,0.077,0.022,-0.098,-0.094,-0.190,-0.235,-0.215,-0.125,-0.120
-0.036,-0.114,-0.078,0.075,0.022,-0.096,-0.089,-0.190,-0.235,-0.215,-0.125,-0.120
-0.032,-0.115,-0.084,0.074,0.026,-0.099,-0.090,-0.190,-0.235,-0.215,-0.125,-0.120
-0.015,-0.115,-0.100,0.065,0.043,-0.107,-0.090,-0.190,-0.235,-0.215,-0.125,-0.120
-0.014,-0.111,-0.097,0.063,0.041,-0.103,-0.090,-0.190,-0.235,-0.215,-0.125,-0.120
-0.015,-0.109,-0.095,0.063,0.040,-0.101,-0.090,-0.190,-0.235,-0.215,-0.125,-0.120
-0.017,-0.111,-0.093,0.064,0.038,-0.102,-0.090,-0.190,-0.235,-0.215,-0.125,-0.120
-0.019,-0.109,-0.090,0.064,0.035,-0.099,-0.090,-0.190,-0.235,-0.215,-0.125,-0.120
-0.015,-0.105,-0.090,0.060,0.038,-0.097,-0.090,-0.190,-0.235,-0.215,-0.125,-0.120
-0.019,-0.105,-0.086,0.062,0.034,-0.095,-0.086,-0.190,-0.235,-0.215,-0.125,-0.120
-0.021,-0.106,-0.084,0.064,0.032,-0.095,-0.085,-0.190,-0.235,-0.215,-0.125,-0.120
-0.017,-0.103,-0.086,0.061,0.034,-0.094,-0.085,-0.190,-0.235,-0.215,-0.125,-0.120
-0.015,-0.100,-0.084,0.058,0.034,-0.091,-0.085,-0.190,-0.235,-0.215,-0.125,-0.120
-0.020,-0.100,-0.080,0.060,0.030,-0.090,-0.085,-0.190,-0.235,-0.215,-0.125,-0.120
-0.020,-0.100,-0.080,0.060,0.030,-0.090,-0.085,-0.190,-0.235,-0.215,-0.125,-0.120
-0.020,-0.097,-0.077,0.059,0.029,-0.087,-0.085,-0.190,-0.235,-0.215,-0.125,-0.120
-0.020,-0.095,-0.075,0.058,0.028,-0.085,-0.085,-0.190,-0.235,-0.215,-0.125,-0.120
-0.021,-0.095,-0.074,0.058,0.027,-0.085,-0.084,-0.190,-0.235,-0.215,-0.125,-0.120
-0.025,-0.095,-0.070,0.060,0.023,-0.082,-0.080,-0.190,-0.235,-0.215,-0.125,-0.120
-0.026,-0.095,-0.070,0.061,0.022,-0.082,-0.080,-0.190,-0.235,-0.215,-0.125,-0.120
-0.021,-0.092,-0.071,0.057,0.025,-0.081,-0.080,-0.190,-0.235,-0.216,-0.125,-0.120
-0.021,-0.089,-0.068,0.056,0.023,-0.079,-0.080,-0.190,-0.235,-0.213,-0.125,-0.120
-0.026,-0.090,-0.065,0.059,0.019,-0.077,-0.080,-0.190,-0.235,-0.210,-0.125,-0.120
-0.025,-0.090,-0.065,0.058,0.020,-0.077,-0.080,-0.190,-0.235,-0.210,-0.125,-0.120
-0.021,-0.086,-0.065,0.054,0.023,-0.075,-0.080,-0.190,-0.235,-0.210,-0.125,-0.116
-0.020,-0.085,-0.065,0.053,0.023,-0.075,-0.080,-0.190,-0.235,-0.210,-0.122,-0.115
-0.020,-0.085,-0.065,0.053,0.023,-0.075,-0.080,-0.190,-0.235,-0.210,-0.119,-0.115
-0.021,-0.085,-0.064,0.054,0.022,-0.075,-0.080,-0.190,-0.235,-0.210,-0.120,-0.115
-0.025,-0.085,-0.060,0.055,0.018,-0.072,-0.080,-0.190,-0.235,-0.210,-0.120,-0.115
-0.021,-0.081,-0.060,0.051,0.019,-0.070,-0.080,-0.190,-0.235,-0.210,-0.120,-0.115
-0.020,-0.080,-0.060,0.050,0.020,-0.070,-0.080,-0.190,-0.235,-0.207,-0.121,-0.115
-0.020,-0.080,-0.060,0.050,0.020,-0.070,-0.080,-0.190,-0.235,-0.204,-0.118,-0.115
-0.020,-0.080,-0.060,0.050,0.020,-0.070,-0.080,-0.190,-0.235,-0.205,-0.115,-0.114
-0.020,-0.080,-0.060,0.050,0.020,-0.070,-0.080,-0.190,-0.235,-0.205,-0.115,-0.110
-0.015,-0.076,-0.060,0.046,0.023,-0.068,-0.080,-0.190,-0.235,-0.205,-0.115,-0.110
-0.018,-0.074,-0.057,0.046,0.020,-0.065,-0.080,-0.190,-0.235,-0.205,-0.115,-0.110
-0.021,-0.076,-0.054,0.049,0.017,-0.065,-0.080,-0.190,-0.235,-0.205,-0.115,-0.110
-0.019,-0.074,-0.055,0.047,0.018,-0.065,-0.080,-0.190,-0.235,-0.205,-0.115,-0.110
-0.015,-0.070,-0.055,0.043,0.020,-0.062,-0.080,-0.190,-0.235,-0.205,-0.115,-0.110
-0.015,-0.070,-0.055,0.043,0.020,-0.062,-0.080,-0.190,-0.235,-0.201,-0.111,-0.110
-0.014,-0.070,-0.056,0.043,0.021,-0.062,-0.080,-0.190,-0.235,-0.200,-0.110,-0.111
-0.017,-0.070,-0.053,0.044,0.018,-0.061,-0.080,-0.190,-0.235,-0.200,-0.110,-0.108
-0.020,-0.069,-0.050,0.044,0.015,-0.059,-0.080,-0.190,-0.235,-0.200,-0.110,-0.105
-0.015,-0.065,-0.050,0.040,0.018,-0.057,-0.080,-0.190,-0.235,-0.200,-0.110,-0.105
-0.015,-0.065,-0.050,0.040,0.018,-0.057,-0.080,-0.190,-0.235,-0.200,-0.110,-0.105
-0.015,-0.065,-0.050,0.040,0.018,-0.057,-0.080,-0.190,-0.235,-0.200,-0.107,-0.105
-0.014,-0.065,-0.050,0.040,0.018,-0.057,-0.080,-0.190,-0.235,-0.200,-0.104,-0.105
-0.016,-0.066,-0.050,0.041,0.017,-0.057,-0.080,-0.190,-0.235,-0.200,-0.105,-0.105
-0.020,-0.070,-0.050,0.045,0.015,-0.060,-0.080,-0.190,-0.235,-0.200,-0.105,-0.105
-0.016,-0.070,-0.054,0.044,0.019,-0.062,-0.080,-0.194,-0.235,-0.204,-0.105,-0.105
-0.011,-0.070,-0.059,0.041,0.024,-0.064,-0.080,-0.195,-0.235,-0.205,-0.105,-0.106
-0.010,-0.070,-0.060,0.040,0.025,-0.065,-0.080,-0.195,-0.235,-0.205,-0.104,-0.103
-0.010,-0.070,-0.060,0.040,0.025,-0.065,-0.080,-0.195,-0.235,-0.205,-0.106,-0.100
-0.010,-0.070,-0.060,0.040,0.025,-0.065,-0.080,-0.195,-0.235,-0.205,-0.115,-0.100
-0.010,-0.070,-0.060,0.040,0.025,-0.065,-0.080,-0.195,-0.239,-0.205,-0.120,-0.100
-0.010,-0.070,-0.060,0.040,0.025,-0.065,-0.083,-0.195,-0.240,-0.205,-0.120,-0.100
-0.010,-0.070,-0.060,0.040,0.025,-0.065,-0.086,-0.195,-0.240,-0.205,-0.120,-0.100
-0.010,-0.070,-0.060,0.040,0.025,-0.065,-0.085,-0.196,-0.240,-0.206,-0.120,-0.100
-0.010,-0.070,-0.060,0.040,0.025,-0.065,-0.085,-0.200,-0.240,-0.210,-0.120,-0.100
-0.014,-0.074,-0.060,0.044,0.023,-0.067,-0.085,-0.200,-0.240,-0.210,-0.120,-0.100
-0.015,-0.075,-0.060,0.045,0.023,-0.067,-0.085,-0.200,-0.240,-0.210,-0.120,-0.100
-0.015,-0.075,-0.060,0.045,0.023,-0.067,-0.085,-0.200,-0.240,-0.210,-0.120,-0.100
-0.015,-0.075,-0.060,0.045,0.023,-0.067,-0.085,-0.200,-0.240,-0.210,-0.120,-0.100
-0.015,-0.075,-0.060,0.045,0.023,-0.067,-0.085,-0.200,-0.240,-0.210,-0.120,-0.100
-0.015,-0.075,-0.060,0.045,0.023,-0.067,-0.085,-0.200,-0.240,-0.210,-0.120,-0.100
-0.015,-0.075,-0.060,0.045,0.023,-0.067,-0.085,-0.199,-0.240,-0.209,-0.120,-0.100
-0.014,-0.075,-0.061,0.045,0.024,-0.067,-0.085,-0.202,-0.240,-0.212,-0.120,-0.100
-0.016,-0.075,-0.059,0.046,0.022,-0.066,-0.085,-0.205,-0.241,-0.215,-0.120,-0.100
-0.015,-0.075,-0.060,0.045,0.023,-0.067,-0.085,-0.205,-0.245,-0.215,-0.120,-0.100
0.010,-0.075,-0.085,0.032,0.048,-0.080,-0.085,-0.209,-0.245,-0.215,-0.120,-0.100
0.014,-0.075,-0.089,0.031,0.052,-0.082,-0.085,-0.210,-0.245,-0.215,-0.120,-0.100
0.009,-0.075,-0.084,0.034,0.047,-0.079,-0.085,-0.212,-0.245,-0.215,-0.120,-0.100
0.010,-0.075,-0.085,0.033,0.048,-0.080,-0.085,-0.215,-0.245,-0.215,-0.120,-0.100
0.010,-0.075,-0.085,0.033,0.048,-0.080,-0.085,-0.215,-0.245,-0.215,-0.120,-0.100
0.010,-0.075,-0.085,0.033,0.048,-0.080,-0.085,-0.219,-0.245,-0.215,-0.120,-0.100
0.010,-0.075,-0.085,0.033,0.048,-0.080,-0.085,-0.220,-0.245,-0.216,-0.120,-0.100
0.010,-0.075,-0.085,0.033,0.048,-0.080,-0.085,-0.220,-0.245,-0.213,-0.120,-0.100
0.010,-0.075,-0.085,0.033,0.048,-0.080,-0.085,-0.220,-0.245,-0.210,-0.120,-0.100
0.010,-0.075,-0.085,0.033,0.048,-0.080,-0.085,-0.220,-0.245,-0.210,-0.120,-0.100
0.010,-0.075,-0.085,0.033,0.048,-0.080,-0.085,-0.220,-0.245,-0.210,-0.120,-0.104
0.010,-0.075,-0.085,0.033,0.048,-0.080,-0.085,-0.223,-0.245,-0.210,-0.120,-0.105
0.010,-0.075,-0.085,0.033,0.048,-0.080,-0.085,-0.226,-0.245,-0.210,-0.120,-0.107
0.010,-0.075,-0.085,0.033,0.048,-0.080,-0.086,-0.225,-0.245,-0.210,-0.120,-0.110
0.010,-0.075,-0.085,0.033,0.048,-0.080,-0.090,-0.225,-0.245,-0.210,-0.120,-0.110
0.010,-0.075,-0.085,0.033,0.048,-0.080,-0.090,-0.225,-0.245,-0.210,-0.120,-0.110
0.010,-0.075,-0.085,0.033,0.048,-0.080,-0.093,-0.224,-0.245,-0.207,-0.120,-0.110
0.010,-0.075,-0.085,0.033,0.048,-0.080,-0.095,-0.227,-0.245,-0.204,-0.120,-0.110
0.010,-0.075,-0.085,0.033,0.048,-0.080,-0.096,-0.230,-0.245,-0.205,-0.120,-0.110
0.010,-0.075,-0.085,0.033,0.048,-0.080,-0.100,-0.230,-0.245,-0.205,-0.120,-0.110
0.010,-0.075,-0.085,0.033,0.048,-0.080,-0.101,-0.230,-0.245,-0.205,-0.120,-0.110
0.010,-0.075,-0.085,0.033,0.048,-0.080,-0.097,-0.230,-0.245,-0.205,-0.120,-0.110
0.010,-0.075,-0.085,0.033,0.048,-0.080,-0.094,-0.230,-0.245,-0.205,-0.120,-0.110
0.010,-0.075,-0.085,0.033,0.048,-0.080,-0.095,-0.230,-0.245,-0.205,-0.120,-0.110
0.010,-0.075,-0.085,0.033,0.048,-0.080,-0.095,-0.230,-0.245,-0.205,-0.120,-0.110
0.010,-0.075,-0.085,0.033,0.048,-0.080,-0.095,-0.230,-0.245,-0.201,-0.120,-0.110
0.010,-0.075,-0.085,0.033,0.048,-0.080,-0.096,-0.230,-0.245,-0.200,-0.120,-0.110
0.010,-0.075,-0.085,0.033,0.048,-0.080,-0.093,-0.230,-0.245,-0.200,-0.120,-0.110
0.011,-0.074,-0.085,0.032,0.048,-0.080,-0.090,-0.230,-0.245,-0.200,-0.120,-0.110
0.015,-0.070,-0.085,0.028,0.050,-0.077,-0.090,-0.230,-0.245,-0.200,-0.120,-0.110
0.015,-0.070,-0.085,0.028,0.050,-0.077,-0.090,-0.234,-0.245,-0.200,-0.120,-0.110
0.015,-0.070,-0.085,0.028,0.050,-0.077,-0.090,-0.235,-0.245,-0.200,-0.120,-0.110
0.015,-0.070,-0.085,0.028,0.050,-0.077,-0.090,-0.235,-0.245,-0.200,-0.120,-0.110
0.015,-0.070,-0.085,0.028,0.050,-0.077,-0.090,-0.235,-0.245,-0.199,-0.120,-0.110
0.015,-0.070,-0.085,0.028,0.050,-0.077,-0.090,-0.235,-0.245,-0.200,-0.120,-0.110
0.015,-0.070,-0.085,0.028,0.050,-0.077,-0.086,-0.235,-0.245,-0.216,-0.120,-0.110
0.014,-0.071,-0.085,0.029,0.050,-0.077,-0.085,-0.235,-0.245,-0.225,-0.120,-0.110
0.017,-0.068,-0.085,0.026,0.051,-0.076,-0.085,-0.235,-0.245,-0.225,-0.120,-0.110
0.020,-0.065,-0.085,0.023,0.053,-0.075,-0.085,-0.235,-0.245,-0.225,-0.120,-0.110
0.020,-0.065,-0.085,0.023,0.053,-0.075,-0.085,-0.235,-0.245,-0.225,-0.120,-0.110
0.020,-0.065,-0.085,0.023,0.053,-0.075,-0.085,-0.235,-0.249,-0.225,-0.120,-0.110
0.020,-0.065,-0.085,0.023,0.053,-0.075,-0.082,-0.235,-0.250,-0.225,-0.120,-0.110
0.020,-0.065,-0.085,0.023,0.053,-0.075,-0.079,-0.235,-0.250,-0.225,-0.120,-0.110
0.020,-0.065,-0.085,0.023,0.053,-0.075,-0.080,-0.236,-0.250,-0.225,-0.120,-0.110
0.020,-0.065,-0.085,0.023,0.053,-0.075,-0.080,-0.240,-0.250,-0.225,-0.120,-0.110
0.020,-0.065,-0.085,0.023,0.053,-0.075,-0.080,-0.240,-0.250,-0.225,-0.120,-0.110
0.023,-0.062,-0.085,0.020,0.054,-0.073,-0.080,-0.240,-0.250,-0.225,-0.120,-0.110
0.026,-0.059,-0.085,0.017,0.055,-0.072,-0.080,-0.240,-0.250,-0.225,-0.120,-0.110
0.025,-0.060,-0.085,0.018,0.055,-0.072,-0.081,-0.240,-0.250,-0.225,-0.120,-0.110
0.025,-0.060,-0.085,0.018,0.055,-0.072,-0.085,-0.240,-0.250,-0.225,-0.120,-0.110
0.025,-0.060,-0.085,0.018,0.055,-0.072,-0.085,-0.240,-0.250,-0.225,-0.120,-0.110
0.025,-0.060,-0.085,0.018,0.055,-0.072,-0.088,-0.240,-0.250,-0.225,-0.120,-0.110
0.025,-0.060,-0.085,0.018,0.055,-0.072,-0.090,-0.240,-0.250,-0.225,-0.120,-0.110
0.025,-0.060,-0.085,0.018,0.055,-0.072,-0.091,-0.240,-0.251,-0.225,-0.120,-0.110
0.025,-0.060,-0.085,0.018,0.055,-0.072,-0.095,-0.240,-0.255,-0.225,-0.120,-0.110
0.025,-0.060,-0.085,0.018,0.055,-0.072,-0.096,-0.240,-0.255,-0.225,-0.120,-0.118
0.025,-0.057,-0.082,0.016,0.054,-0.069,-0.092,-0.240,-0.255,-0.225,-0.120,-0.124
0.025,-0.054,-0.079,0.015,0.053,-0.066,-0.090,-0.240,-0.255,-0.225,-0.120,-0.125
0.025,-0.055,-0.080,0.015,0.053,-0.067,-0.090,-0.240,-0.255,-0.225,-0.120,-0.125
0.025,-0.055,-0.080,0.015,0.053,-0.067,-0.090,-0.240,-0.255,-0.225,-0.120,-0.125
0.025,-0.055,-0.080,0.015,0.053,-0.067,-0.090,-0.240,-0.255,-0.225,-0.120,-0.125
0.025,-0.055,-0.080,0.015,0.053,-0.067,-0.090,-0.240,-0.255,-0.225,-0.120,-0.125
0.025,-0.055,-0.080,0.015,0.053,-0.067,-0.090,-0.240,-0.255,-0.225,-0.120,-0.125
0.025,-0.055,-0.080,0.015,0.053,-0.067,-0.090,-0.240,-0.255,-0.224,-0.120,-0.125
0.025,-0.055,-0.080,0.015,0.053,-0.067,-0.090,-0.240,-0.255,-0.220,-0.120,-0.125
0.025,-0.051,-0.076,0.013,0.050,-0.063,-0.090,-0.240,-0.255,-0.220,-0.120,-0.125
0.025,-0.050,-0.075,0.013,0.050,-0.062,-0.090,-0.240,-0.255,-0.220,-0.120,-0.125
0.025,-0.050,-0.075,0.013,0.050,-0.062,-0.090,-0.240,-0.255,-0.220,-0.120,-0.125
0.025,-0.050,-0.075,0.013,0.050,-0.062,-0.090,-0.240,-0.255,-0.220,-0.121,-0.125
0.025,-0.050,-0.075,0.013,0.050,-0.062,-0.090,-0.240,-0.255,-0.220,-0.125,-0.125
0.025,-0.050,-0.075,0.013,0.050,-0.062,-0.090,-0.240,-0.255,-0.220,-0.125,-0.125
0.025,-0.050,-0.075,0.013,0.050,-0.062,-0.090,-0.240,-0.255,-0.220,-0.125,-0.125
0.025,-0.050,-0.075,0.013,0.050,-0.062,-0.090,-0.240,-0.255,-0.220,-0.125,-0.125
0.025,-0.049,-0.074,0.013,0.050,-0.061,-0.090,-0.240,-0.255,-0.220,-0.125,-0.125
0.025,-0.045,-0.070,0.010,0.048,-0.057,-0.090,-0.240,-0.255,-0.220,-0.125,-0.125
0.025,-0.045,-0.070,0.010,0.048,-0.057,-0.090,-0.240,-0.255,-0.220,-0.125,-0.125
0.025,-0.045,-0.070,0.010,0.048,-0.057,-0.090,-0.240,-0.255,-0.221,-0.124,-0.125
0.025,-0.045,-0.070,0.010,0.048,-0.057,-0.090,-0.240,-0.255,-0.218,-0.127,-0.125
0.025,-0.045,-0.070,0.010,0.048,-0.057,-0.090,-0.240,-0.255,-0.215,-0.130,-0.125
0.025,-0.045,-0.070,0.010,0.048,-0.057,-0.090,-0.240,-0.255,-0.215,-0.130,-0.125
0.025,-0.045,-0.070,0.010,0.048,-0.057,-0.090,-0.240,-0.255,-0.215,-0.130,-0.125
0.025,-0.045,-0.070,0.010,0.048,-0.057,-0.090,-0.240,-0.255,-0.215,-0.130,-0.125
0.024,-0.045,-0.070,0.011,0.047,-0.057,-0.090,-0.240,-0.255,-0.215,-0.130,-0.125
0.027,-0.044,-0.071,0.009,0.049,-0.057,-0.091,-0.240,-0.255,-0.215,-0.130,-0.125
0.035,-0.040,-0.075,0.003,0.055,-0.057,-0.095,-0.240,-0.255,-0.215,-0.130,-0.125
0.035,-0.040,-0.075,0.003,0.055,-0.057,-0.095,-0.236,-0.255,-0.215,-0.130,-0.125
0.035,-0.040,-0.075,0.003,0.055,-0.057,-0.095,-0.235,-0.255,-0.215,-0.133,-0.125
0.035,-0.040,-0.075,0.003,0.055,-0.057,-0.095,-0.235,-0.255,-0.215,-0.136,-0.125
0.035,-0.040,-0.075,0.003,0.055,-0.057,-0.095,-0.235,-0.255,-0.215,-0.135,-0.125
0.035,-0.040,-0.075,0.003,0.055,-0.057,-0.095,-0.235,-0.255,-0.215,-0.135,-0.125
0.035,-0.040,-0.075,0.003,0.055,-0.057,-0.095,-0.235,-0.255,-0.215,-0.135,-0.125
0.035,-0.040,-0.075,0.003,0.055,-0.057,-0.093,-0.235,-0.255,-0.212,-0.135,-0.125
0.035,-0.040,-0.075,0.003,0.055,-0.057,-0.087,-0.235,-0.255,-0.209,-0.135,-0.125
0.035,-0.040,-0.075,0.003,0.055,-0.057,-0.094,-0.235,-0.255,-0.210,-0.135,-0.125
0.035,-0.040,-0.075,0.003,0.055,-0.057,-0.115,-0.235,-0.255,-0.210,-0.135,-0.125
0.035,-0.040,-0.075,0.003,0.055,-0.057,-0.112,-0.235,-0.251,-0.210,-0.135,-0.125
0.035,-0.040,-0.075,0.003,0.055,-0.057,-0.109,-0.235,-0.250,-0.211,-0.132,-0.125
0.035,-0.040,-0.075,0.003,0.055,-0.057,-0.111,-0.235,-0.250,-0.208,-0.129,-0.125
0.035,-0.040,-0.075,0.003,0.055,-0.057,-0.109,-0.234,-0.250,-0.205,-0.130,-0.125
0.035,-0.040,-0.075,0.003,0.055,-0.057,-0.105,-0.230,-0.250,-0.205,-0.130,-0.125
0.035,-0.040,-0.075,0.003,0.055,-0.057,-0.105,-0.230,-0.246,-0.205,-0.126,-0.125
0.035,-0.040,-0.075,0.003,0.055,-0.057,-0.106,-0.230,-0.245,-0.205,-0.125,-0.125
0.035,-0.040,-0.075,0.003,0.055,-0.057,-0.103,-0.230,-0.245,-0.205,-0.125,-0.125
0.035,-0.040,-0.075,0.003,0.055,-0.057,-0.100,-0.230,-0.245,-0.205,-0.125,-0.125
0.035,-0.040,-0.075,0.003,0.055,-0.057,-0.100,-0.230,-0.245,-0.205,-0.125,-0.125
0.035,-0.040,-0.075,0.003,0.055,-0.057,-0.100,-0.230,-0.245,-0.201,-0.121,-0.125
0.035,-0.040,-0.075,0.003,0.055,-0.057,-0.097,-0.230,-0.242,-0.200,-0.119,-0.125
0.035,-0.040,-0.075,0.003,0.055,-0.057,-0.094,-0.230,-0.239,-0.200,-0.121,-0.125
0.035,-0.040,-0.075,0.003,0.055,-0.057,-0.095,-0.230,-0.240,-0.200,-0.119,-0.125
0.035,-0.040,-0.075,0.003,0.055,-0.057,-0.095,-0.230,-0.240,-0.200,-0.115,-0.125
0.034,-0.040,-0.075,0.004,0.054,-0.057,-0.091,-0.230,-0.240,-0.200,-0.115,-0.125
0.041,-0.037,-0.078,-0.001,0.060,-0.057,-0.089,-0.231,-0.237,-0.197,-0.115,-0.125
0.048,-0.032,-0.080,-0.008,0.064,-0.056,-0.091,-0.227,-0.234,-0.194,-0.115,-0.123
0.051,-0.030,-0.081,-0.010,0.066,-0.055,-0.089,-0.218,-0.235,-0.195,-0.114,-0.119
0.055,-0.030,-0.085,-0.012,0.070,-0.057,-0.085,-0.215,-0.235,-0.195,-0.110,-0.115
0.059,-0.026,-0.085,-0.016,0.072,-0.056,-0.084,-0.212,-0.235,-0.195,-0.110,-0.111
0.066,-0.021,-0.088,-0.022,0.077,-0.054,-0.086,-0.204,-0.236,-0.195,-0.110,-0.110
0.071,-0.020,-0.092,-0.026,0.081,-0.056,-0.080,-0.197,-0.232,-0.195,-0.110,-0.109
0.069,-0.019,-0.088,-0.025,0.078,-0.053,-0.067,-0.194,-0.223,-0.194,-0.109,-0.104
0.065,-0.010,-0.075,-0.027,0.070,-0.042,-0.060,-0.190,-0.215,-0.190,-0.105,-0.100
0.065,-0.001,-0.067,-0.031,0.066,-0.033,-0.053,-0.186,-0.207,-0.186,-0.101,-0.100
0.063,0.003,-0.060,-0.032,0.061,-0.028,-0.041,-0.182,-0.199,-0.181,-0.096,-0.098
0.057,0.008,-0.049,-0.033,0.053,-0.020,-0.031,-0.178,-0.191,-0.180,-0.095,-0.093
0.055,0.017,-0.038,-0.036,0.046,-0.010,-0.023,-0.174,-0.184,-0.179,-0.094,-0.090
0.055,0.025,-0.030,-0.040,0.042,-0.002,-0.015,-0.170,-0.180,-0.175,-0.090,-0.090
0.050,0.029,-0.021,-0.040,0.035,0.004,-0.011,-0.166,-0.178,-0.171,-0.086,-0.090
0.056,0.033,-0.022,-0.044,0.039,0.006,-0.007,-0.163,-0.193,-0.170,-0.085,-0.090
0.061,0.035,-0.026,-0.047,0.043,0.005,-0.003,-0.156,-0.201,-0.169,-0.084,-0.090
0.060,0.036,-0.025,-0.048,0.042,0.005,0.000,-0.149,-0.193,-0.164,-0.079,-0.090
0.065,0.040,-0.025,-0.052,0.045,0.007,0.000,-0.145,-0.190,-0.160,-0.075,-0.090
0.069,0.040,-0.029,-0.054,0.049,0.005,0.004,-0.141,-0.186,-0.160,-0.075,-0.090
0.074,0.043,-0.031,-0.059,0.053,0.006,0.009,-0.134,-0.182,-0.160,-0.075,-0.090
0.072,0.045,-0.027,-0.059,0.049,0.008,0.010,-0.128,-0.178,-0.160,-0.075,-0.090
0.081,0.046,-0.035,-0.063,0.057,0.005,0.011,-0.124,-0.174,-0.160,-0.075,-0.090
0.110,0.050,-0.060,-0.080,0.085,-0.005,0.015,-0.120,-0.170,-0.160,-0.075,-0.090
0.113,0.048,-0.066,-0.080,0.090,-0.008,0.019,-0.120,-0.174,-0.160,-0.075,-0.090
0.130,0.066,-0.064,-0.098,0.097,0.001,0.022,-0.120,-0.176,-0.160,-0.075,-0.090
0.142,0.075,-0.067,-0.108,0.104,0.004,0.013,-0.120,-0.174,-0.160,-0.075,-0.090
0.132,0.062,-0.070,-0.097,0.101,-0.003,-0.004,-0.119,-0.176,-0.160,-0.075,-0.090
0.125,0.055,-0.070,-0.090,0.097,-0.007,-0.015,-0.120,-0.180,-0.160,-0.075,-0.090
0.121,0.047,-0.074,-0.083,0.097,-0.013,-0.027,-0.135,-0.180,-0.160,-0.075,-0.090
0.118,0.039,-0.079,-0.078,0.098,-0.020,-0.039,-0.153,-0.179,-0.160,-0.075,-0.090
0.111,0.031,-0.080,-0.071,0.095,-0.024,-0.052,-0.167,-0.183,-0.159,-0.075,-0.090
0.113,0.023,-0.090,-0.067,0.101,-0.034,-0.069,-0.177,-0.192,-0.161,-0.075,-0.090
0.130,0.015,-0.115,-0.072,0.122,-0.050,-0.085,-0.185,-0.195,-0.170,-0.075,-0.090
0.124,0.011,-0.113,-0.067,0.118,-0.051,-0.097,-0.189,-0.193,-0.174,-0.075,-0.090
0.113,0.007,-0.106,-0.060,0.109,-0.049,-0.111,-0.193,-0.207,-0.178,-0.075,-0.090
0.125,0.005,-0.120,-0.065,0.122,-0.057,-0.114,-0.197,-0.217,-0.180,-0.075,-0.090
0.140,0.004,-0.136,-0.072,0.138,-0.066,-0.109,-0.202,-0.215,-0.181,-0.075,-0.090
0.130,0.000,-0.130,-0.065,0.130,-0.065,-0.110,-0.210,-0.215,-0.185,-0.075,-0.090
0.130,0.000,-0.130,-0.065,0.130,-0.065,-0.110,-0.218,-0.215,-0.185,-0.075,-0.090
0.125,-0.002,-0.127,-0.061,0.126,-0.065,-0.110,-0.224,-0.215,-0.188,-0.075,-0.089
0.117,-0.008,-0.125,-0.054,0.121,-0.066,-0.110,-0.225,-0.215,-0.190,-0.075,-0.092
0.114,-0.010,-0.124,-0.052,0.119,-0.067,-0.110,-0.225,-0.214,-0.191,-0.076,-0.095
0.110,-0.010,-0.120,-0.050,0.115,-0.065,-0.110,-0.225,-0.215,-0.195,-0.080,-0.095
0.106,-0.015,-0.121,-0.046,0.114,-0.067,-0.110,-0.223,-0.227,-0.195,-0.084,-0.095
0.102,-0.013,-0.114,-0.045,0.109,-0.063,-0.107,-0.241,-0.235,-0.198,-0.091,-0.095
0.083,-0.024,-0.107,-0.029,0.095,-0.065,-0.104,-0.251,-0.235,-0.200,-0.098,-0.095
0.062,-0.042,-0.104,-0.010,0.083,-0.073,-0.105,-0.244,-0.236,-0.200,-0.100,-0.095
0.060,-0.040,-0.100,-0.010,0.080,-0.070,-0.105,-0.245,-0.240,-0.200,-0.100,-0.095
0.052,-0.040,-0.092,-0.006,0.072,-0.066,-0.105,-0.245,-0.240,-0.199,-0.100,-0.099
0.046,-0.040,-0.087,-0.003,0.066,-0.063,-0.105,-0.245,-0.243,-0.209,-0.103,-0.100
0.043,-0.040,-0.083,-0.001,0.063,-0.061,-0.105,-0.245,-0.245,-0.218,-0.106,-0.102
0.039,-0.040,-0.079,0.001,0.059,-0.059,-0.105,-0.245,-0.245,-0.220,-0.105,-0.105
0.035,-0.040,-0.075,0.003,0.055,-0.057,-0.105,-0.245,-0.245,-0.220,-0.105,-0.105
0.035,-0.040,-0.075,0.003,0.055,-0.057,-0.101,-0.245,-0.243,-0.220,-0.113,-0.108
0.035,-0.040,-0.075,0.003,0.055,-0.057,-0.100,-0.245,-0.258,-0.223,-0.118,-0.120
0.035,-0.040,-0.075,0.003,0.055,-0.057,-0.100,-0.245,-0.265,-0.225,-0.122,-0.125
0.035,-0.040,-0.075,0.003,0.055,-0.057,-0.100,-0.245,-0.259,-0.225,-0.125,-0.119
0.035,-0.040,-0.075,0.003,0.055,-0.057,-0.100,-0.245,-0.260,-0.225,-0.125,-0.120
0.031,-0.040,-0.071,0.004,0.051,-0.055,-0.100,-0.245,-0.260,-0.221,-0.125,-0.120
0.027,-0.043,-0.070,0.008,0.049,-0.056,-0.100,-0.242,-0.260,-0.220,-0.125,-0.120
0.023,-0.047,-0.070,0.012,0.047,-0.058,-0.100,-0.239,-0.260,-0.220,-0.125,-0.120
0.020,-0.050,-0.070,0.015,0.045,-0.060,-0.100,-0.240,-0.260,-0.220,-0.125,-0.120
0.020,-0.050,-0.070,0.015,0.045,-0.060,-0.100,-0.240,-0.260,-0.220,-0.125,-0.120
0.020,-0.050,-0.070,0.015,0.045,-0.060,-0.096,-0.240,-0.260,-0.220,-0.125,-0.120
0.021,-0.050,-0.071,0.015,0.046,-0.060,-0.095,-0.240,-0.257,-0.220,-0.125,-0.120
0.018,-0.050,-0.068,0.016,0.043,-0.059,-0.095,-0.240,-0.254,-0.220,-0.125,-0.120
0.015,-0.050,-0.065,0.018,0.040,-0.057,-0.095,-0.240,-0.255,-0.220,-0.125,-0.120
0.015,-0.050,-0.065,0.018,0.040,-0.057,-0.095,-0.240,-0.255,-0.220,-0.125,-0.120
0.007,-0.058,-0.065,0.026,0.036,-0.061,-0.091,-0.240,-0.255,-0.220,-0.125,-0.120
0.000,-0.065,-0.065,0.033,0.033,-0.065,-0.090,-0.240,-0.255,-0.220,-0.125,-0.117
0.002,-0.063,-0.065,0.031,0.034,-0.064,-0.090,-0.240,-0.255,-0.220,-0.125,-0.114
0.004,-0.060,-0.064,0.028,0.034,-0.062,-0.090,-0.240,-0.255,-0.220,-0.125,-0.115
0.000,-0.060,-0.060,0.030,0.030,-0.060,-0.090,-0.240,-0.255,-0.220,-0.125,-0.115
0.004,-0.056,-0.060,0.026,0.032,-0.057,-0.086,-0.236,-0.251,-0.220,-0.125,-0.115
0.005,-0.055,-0.060,0.025,0.033,-0.057,-0.085,-0.235,-0.250,-0.220,-0.125,-0.115
0.007,-0.053,-0.060,0.023,0.034,-0.056,-0.085,-0.235,-0.250,-0.220,-0.125,-0.115
0.010,-0.050,-0.060,0.020,0.035,-0.055,-0.085,-0.235,-0.250,-0.220,-0.125,-0.115
0.010,-0.050,-0.060,0.020,0.035,-0.055,-0.085,-0.235,-0.250,-0.220,-0.125,-0.115
0.014,-0.046,-0.060,0.016,0.038,-0.052,-0.085,-0.235,-0.250,-0.220,-0.125,-0.115
0.015,-0.045,-0.060,0.015,0.038,-0.052,-0.082,-0.235,-0.250,-0.220,-0.125,-0.115
0.017,-0.043,-0.060,0.013,0.039,-0.051,-0.079,-0.235,-0.250,-0.220,-0.125,-0.115
0.020,-0.040,-0.060,0.010,0.040,-0.050,-0.080,-0.235,-0.250,-0.220,-0.125,-0.115
0.020,-0.040,-0.060,0.010,0.040,-0.050,-0.080,-0.235,-0.250,-0.220,-0.125,-0.115
0.024,-0.036,-0.060,0.006,0.042,-0.048,-0.080,-0.235,-0.246,-0.220,-0.125,-0.111
0.026,-0.034,-0.060,0.004,0.043,-0.047,-0.077,-0.232,-0.245,-0.221,-0.122,-0.110
0.024,-0.036,-0.060,0.006,0.043,-0.047,-0.074,-0.229,-0.243,-0.218,-0.119,-0.108
0.026,-0.034,-0.060,0.004,0.043,-0.047,-0.075,-0.230,-0.240,-0.215,-0.120,-0.105
0.030,-0.030,-0.060,0.000,0.045,-0.045,-0.075,-0.230,-0.240,-0.215,-0.120,-0.105
0.030,-0.030,-0.060,0.000,0.045,-0.045,-0.075,-0.230,-0.236,-0.211,-0.120,-0.101
0.029,-0.031,-0.060,0.001,0.045,-0.045,-0.076,-0.230,-0.235,-0.210,-0.120,-0.099
0.032,-0.028,-0.060,-0.002,0.046,-0.044,-0.073,-0.230,-0.233,-0.208,-0.120,-0.101
0.035,-0.025,-0.060,-0.005,0.048,-0.042,-0.070,-0.230,-0.230,-0.205,-0.120,-0.099
0.035,-0.025,-0.060,-0.005,0.048,-0.042,-0.070,-0.230,-0.230,-0.205,-0.120,-0.095
0.036,-0.025,-0.060,-0.005,0.048,-0.042,-0.066,-0.230,-0.226,-0.201,-0.120,-0.095
0.032,-0.027,-0.060,-0.003,0.047,-0.043,-0.065,-0.231,-0.225,-0.200,-0.120,-0.092
0.044,-0.017,-0.061,-0.014,0.053,-0.039,-0.063,-0.227,-0.223,-0.198,-0.121,-0.090
0.062,0.004,-0.058,-0.033,0.060,-0.027,-0.060,-0.218,-0.220,-0.195,-0.118,-0.089
0.065,0.020,-0.045,-0.042,0.055,-0.012,-0.060,-0.215,-0.220,-0.195,-0.105,-0.085
0.077,0.045,-0.033,-0.061,0.055,0.006,-0.052,-0.211,-0.215,-0.183,-0.097,-0.084
0.081,0.061,-0.021,-0.071,0.051,0.020,-0.044,-0.207,-0.216,-0.174,-0.089,-0.087
0.080,0.070,-0.010,-0.075,0.044,0.030,-0.036,-0.202,-0.208,-0.164,-0.081,-0.080
0.089,0.093,0.004,-0.091,0.042,0.048,-0.029,-0.201,-0.191,-0.153,-0.073,-0.067
0.100,0.125,0.025,-0.113,0.037,0.075,-0.020,-0.195,-0.180,-0.145,-0.065,-0.060
0.087,0.132,0.045,-0.110,0.021,0.088,0.000,-0.156,-0.167,-0.132,-0.058,-0.052
0.089,0.156,0.068,-0.123,0.010,0.111,0.017,-0.119,-0.161,-0.127,-0.038,-0.046
0.100,0.192,0.092,-0.146,0.004,0.141,0.035,-0.073,-0.125,-0.102,-0.014,-0.030
0.124,0.223,0.099,-0.174,0.012,0.160,0.064,0.009,-0.059,-0.053,0.014,-0.003
0.160,0.245,0.085,-0.203,0.037,0.165,0.105,0.120,0.000,-0.010,0.055,0.020
0.159,0.238,0.080,-0.199,0.039,0.159,0.147,0.242,0.074,0.041,0.092,0.036
0.181,0.228,0.047,-0.205,0.067,0.137,0.204,0.334,0.155,0.098,0.122,0.052
0.215,0.223,0.008,-0.220,0.103,0.116,0.215,0.356,0.202,0.133,0.145,0.066
0.251,0.218,-0.033,-0.235,0.142,0.093,0.184,0.335,0.228,0.159,0.166,0.079
0.310,0.210,-0.100,-0.260,0.205,0.055,0.165,0.325,0.280,0.210,0.200,0.105
0.368,0.203,-0.166,-0.286,0.267,0.018,0.116,0.321,0.350,0.270,0.256,0.145
0.409,0.192,-0.218,-0.300,0.313,-0.013,0.006,0.236,0.394,0.330,0.307,0.185
0.475,0.213,-0.262,-0.344,0.368,-0.024,-0.187,0.041,0.415,0.391,0.371,0.242
0.576,0.279,-0.297,-0.427,0.437,-0.009,-0.395,-0.152,0.453,0.466,0.458,0.321
0.670,0.360,-0.310,-0.515,0.490,0.025,-0.535,-0.260,0.520,0.560,0.555,0.405
0.746,0.444,-0.302,-0.594,0.523,0.071,-0.678,-0.405,0.583,0.659,0.658,0.491
0.865,0.530,-0.335,-0.697,0.600,0.097,-0.894,-0.554,0.663,0.770,0.770,0.596
0.982,0.603,-0.379,-0.792,0.680,0.112,-1.093,-0.629,0.790,0.905,0.906,0.714
1.075,0.604,-0.471,-0.839,0.772,0.067,-1.207,-0.618,0.896,0.997,0.976,0.773
1.185,0.500,-0.685,-0.842,0.935,-0.092,-1.295,-0.610,0.855,0.955,0.915,0.740
1.279,0.357,-0.921,-0.817,1.100,-0.282,-1.429,-0.703,0.657,0.806,0.869,0.720
1.290,0.251,-1.038,-0.770,1.164,-0.393,-1.521,-0.830,0.445,0.656,0.795,0.690
1.293,0.201,-1.092,-0.747,1.192,-0.445,-1.513,-0.944,0.256,0.526,0.726,0.651
1.265,0.181,-1.084,-0.723,1.174,-0.451,-1.460,-1.018,0.104,0.425,0.684,0.617
1.105,0.155,-0.950,-0.630,1.027,-0.397,-1.415,-1.055,0.005,0.365,0.635,0.595
0.913,0.104,-0.808,-0.508,0.861,-0.352,-1.310,-1.120,-0.115,0.281,0.572,0.580
0.801,0.050,-0.751,-0.425,0.775,-0.350,-1.234,-1.242,-0.303,0.133,0.464,0.516
0.708,0.001,-0.707,-0.354,0.708,-0.353,-1.184,-1.385,-0.495,-0.023,0.340,0.427
0.592,-0.047,-0.639,-0.272,0.616,-0.343,-1.125,-1.453,-0.618,-0.132,0.237,0.353
0.490,-0.090,-0.580,-0.200,0.535,-0.335,-1.050,-1.395,-0.660,-0.200,0.160,0.290
0.402,-0.110,-0.512,-0.146,0.457,-0.310,-0.936,-1.299,-0.648,-0.250,0.100,0.224
0.347,-0.102,-0.450,-0.122,0.399,-0.275,-0.813,-1.168,-0.642,-0.280,0.036,0.175
0.298,-0.090,-0.389,-0.104,0.344,-0.239,-0.701,-1.025,-0.614,-0.283,-0.003,0.134
0.251,-0.082,-0.333,-0.084,0.292,-0.208,-0.601,-0.892,-0.556,-0.273,-0.013,0.096
0.225,-0.070,-0.295,-0.077,0.260,-0.182,-0.515,-0.765,-0.510,-0.270,-0.030,0.065
0.196,-0.062,-0.258,-0.067,0.227,-0.160,-0.450,-0.654,-0.474,-0.266,-0.047,0.032
0.182,-0.051,-0.233,-0.065,0.208,-0.142,-0.389,-0.568,-0.439,-0.262,-0.058,0.012
0.176,-0.040,-0.217,-0.068,0.197,-0.128,-0.333,-0.506,-0.400,-0.258,-0.076,-0.003
0.159,-0.034,-0.193,-0.063,0.176,-0.113,-0.264,-0.433,-0.360,-0.254,-0.092,-0.019
0.125,-0.030,-0.155,-0.047,0.140,-0.092,-0.180,-0.340,-0.325,-0.250,-0.090,-0.035
0.087,-0.030,-0.116,-0.028,0.101,-0.073,-0.138,-0.290,-0.297,-0.242,-0.090,-0.052
0.072,-0.030,-0.102,-0.021,0.087,-0.066,-0.103,-0.247,-0.270,-0.233,-0.090,-0.059
0.066,-0.030,-0.096,-0.018,0.081,-0.063,-0.071,-0.207,-0.254,-0.228,-0.090,-0.061
0.059,-0.030,-0.089,-0.014,0.074,-0.059,-0.050,-0.178,-0.248,-0.223,-0.091,-0.067
0.055,-0.030,-0.085,-0.012,0.070,-0.057,-0.030,-0.150,-0.240,-0.215,-0.095,-0.080
0.047,-0.030,-0.077,-0.008,0.062,-0.053,-0.017,-0.126,-0.232,-0.207,-0.100,-0.098
0.038,-0.031,-0.068,-0.003,0.053,-0.049,-0.009,-0.103,-0.224,-0.202,-0.100,-0.098
0.035,-0.028,-0.063,-0.003,0.049,-0.045,-0.001,-0.090,-0.216,-0.198,-0.102,-0.094
0.035,-0.025,-0.059,-0.005,0.047,-0.041,0.007,-0.083,-0.208,-0.195,-0.105,-0.095
0.030,-0.025,-0.055,-0.002,0.043,-0.040,0.015,-0.075,-0.200,-0.195,-0.105,-0.095
0.026,-0.025,-0.051,0.000,0.039,-0.038,0.023,-0.067,-0.195,-0.191,-0.109,-0.095
0.022,-0.025,-0.046,0.002,0.035,-0.035,0.031,-0.059,-0.195,-0.189,-0.111,-0.092
0.020,-0.025,-0.045,0.003,0.033,-0.035,0.038,-0.051,-0.193,-0.191,-0.108,-0.089
0.020,-0.025,-0.044,0.003,0.033,-0.035,0.040,-0.044,-0.189,-0.189,-0.105,-0.090
0.015,-0.025,-0.040,0.005,0.028,-0.032,0.040,-0.040,-0.190,-0.185,-0.105,-0.090
0.010,-0.026,-0.036,0.008,0.023,-0.031,0.044,-0.032,-0.190,-0.185,-0.105,-0.090
0.016,-0.019,-0.035,0.002,0.026,-0.027,0.045,-0.027,-0.187,-0.186,-0.102,-0.087
0.021,-0.012,-0.034,-0.004,0.028,-0.023,0.047,-0.023,-0.184,-0.183,-0.100,-0.084
0.020,-0.009,-0.029,-0.005,0.024,-0.019,0.051,-0.019,-0.185,-0.180,-0.100,-0.085
0.020,-0.005,-0.025,-0.007,0.023,-0.015,0.055,-0.015,-0.185,-0.180,-0.100,-0.085
0.024,-0.001,-0.025,-0.011,0.025,-0.013,0.063,-0.011,-0.181,-0.180,-0.100,-0.085
0.025,0.003,-0.022,-0.014,0.023,-0.009,0.068,-0.007,-0.179,-0.177,-0.097,-0.086
0.026,0.007,-0.019,-0.016,0.022,-0.006,0.072,-0.001,-0.181,-0.174,-0.094,-0.083
0.032,0.012,-0.020,-0.022,0.026,-0.004,0.075,0.007,-0.179,-0.175,-0.095,-0.080
0.040,0.020,-0.020,-0.030,0.030,0.000,0.075,0.015,-0.175,-0.175,-0.095,-0.080
0.044,0.024,-0.020,-0.034,0.031,0.001,0.075,0.023,-0.174,-0.167,-0.091,-0.080
0.051,0.031,-0.020,-0.041,0.035,0.005,0.078,0.031,-0.176,-0.161,-0.090,-0.081
0.057,0.037,-0.020,-0.047,0.038,0.008,0.081,0.039,-0.170,-0.159,-0.090,-0.078
0.062,0.042,-0.020,-0.052,0.041,0.011,0.080,0.046,-0.157,-0.153,-0.090,-0.075
0.070,0.050,-0.020,-0.060,0.045,0.015,0.080,0.050,-0.150,-0.145,-0.090,-0.075
0.074,0.054,-0.020,-0.064,0.047,0.017,0.087,0.057,-0.143,-0.141,-0.086,-0.075
0.079,0.059,-0.020,-0.069,0.049,0.019,0.099,0.073,-0.131,-0.137,-0.082,-0.075
0.094,0.074,-0.020,-0.084,0.057,0.027,0.110,0.083,-0.120,-0.133,-0.078,-0.075
0.114,0.094,-0.020,-0.104,0.067,0.037,0.116,0.087,-0.113,-0.130,-0.074,-0.074
0.125,0.105,-0.020,-0.115,0.072,0.042,0.120,0.100,-0.105,-0.130,-0.070,-0.070
0.125,0.109,-0.016,-0.117,0.070,0.046,0.128,0.117,-0.097,-0.126,-0.066,-0.070
0.128,0.114,-0.015,-0.121,0.071,0.049,0.133,0.126,-0.092,-0.125,-0.062,-0.067
0.129,0.114,-0.015,-0.121,0.072,0.049,0.137,0.136,-0.089,-0.123,-0.058,-0.064
0.133,0.118,-0.015,-0.125,0.073,0.051,0.141,0.148,-0.083,-0.120,-0.054,-0.065
0.150,0.135,-0.015,-0.142,0.082,0.060,0.145,0.155,-0.075,-0.120,-0.050,-0.065
0.159,0.144,-0.015,-0.151,0.086,0.064,0.153,0.162,-0.071,-0.112,-0.050,-0.061
0.163,0.148,-0.015,-0.155,0.089,0.066,0.158,0.178,-0.067,-0.106,-0.047,-0.060
0.167,0.152,-0.015,-0.159,0.091,0.068,0.162,0.188,-0.063,-0.103,-0.045,-0.058
0.171,0.156,-0.015,-0.163,0.093,0.070,0.166,0.192,-0.059,-0.099,-0.045,-0.054
0.175,0.160,-0.015,-0.167,0.095,0.072,0.170,0.205,-0.055,-0.095,-0.040,-0.055
0.180,0.164,-0.015,-0.171,0.097,0.075,0.174,0.216,-0.051,-0.091,-0.035,-0.056
0.180,0.165,-0.015,-0.172,0.097,0.075,0.178,0.235,-0.047,-0.087,-0.035,-0.052
0.182,0.167,-0.015,-0.174,0.099,0.076,0.182,0.254,-0.043,-0.083,-0.033,-0.050
0.184,0.170,-0.014,-0.177,0.099,0.077,0.185,0.268,-0.039,-0.079,-0.030,-0.049
0.180,0.170,-0.010,-0.175,0.095,0.080,0.185,0.275,-0.035,-0.075,-0.030,-0.045
0.188,0.178,-0.010,-0.183,0.099,0.084,0.189,0.278,-0.027,-0.075,-0.026,-0.045
0.195,0.184,-0.011,-0.189,0.102,0.086,0.193,0.294,-0.019,-0.073,-0.025,-0.046
0.193,0.185,-0.008,-0.189,0.100,0.088,0.199,0.315,-0.011,-0.067,-0.023,-0.043
0.190,0.185,-0.005,-0.187,0.097,0.090,0.207,0.327,-0.003,-0.065,-0.019,-0.040
0.190,0.185,-0.005,-0.187,0.097,0.090,0.210,0.340,0.005,-0.065,-0.020,-0.040
0.189,0.184,-0.005,-0.186,0.097,0.089,0.211,0.365,0.014,-0.061,-0.020,-0.040
0.195,0.193,-0.002,-0.194,0.098,0.096,0.208,0.379,0.018,-0.057,-0.017,-0.037
0.205,0.206,0.001,-0.206,0.102,0.103,0.217,0.394,0.025,-0.053,-0.014,-0.034
0.210,0.209,0.000,-0.209,0.105,0.104,0.233,0.415,0.039,-0.050,-0.015,-0.035
0.200,0.200,0.000,-0.200,0.100,0.100,0.235,0.435,0.050,-0.050,-0.015,-0.035
0.188,0.192,0.004,-0.190,0.092,0.098,0.237,0.455,0.053,-0.046,-0.011,-0.031
0.179,0.184,0.006,-0.182,0.086,0.094,0.256,0.475,0.067,-0.041,-0.009,-0.030
0.172,0.176,0.004,-0.174,0.084,0.090,0.268,0.496,0.081,-0.040,-0.011,-0.030
0.162,0.168,0.006,-0.165,0.078,0.086,0.264,0.514,0.086,-0.039,-0.009,-0.030
0.150,0.160,0.010,-0.155,0.070,0.085,0.265,0.530,0.090,-0.035,-0.005,-0.030
0.145,0.155,0.010,-0.150,0.067,0.082,0.265,0.556,0.095,-0.030,-0.005,-0.026
0.148,0.158,0.009,-0.153,0.069,0.083,0.263,0.562,0.093,-0.031,-0.006,-0.024
0.149,0.161,0.012,-0.155,0.068,0.086,0.271,0.578,0.102,-0.026,-0.003,-0.026
0.144,0.160,0.015,-0.153,0.064,0.087,0.290,0.613,0.118,-0.019,0.001,-0.024
0.145,0.160,0.015,-0.153,0.065,0.087,0.305,0.635,0.125,-0.015,0.005,-0.020
0.146,0.160,0.015,-0.153,0.066,0.087,0.309,0.646,0.132,-0.007,0.009,-0.020
0.142,0.160,0.018,-0.151,0.062,0.089,0.313,0.668,0.144,-0.002,0.013,-0.020
0.139,0.160,0.021,-0.150,0.059,0.090,0.316,0.687,0.154,0.004,0.017,-0.020
0.140,0.160,0.020,-0.150,0.060,0.090,0.322,0.699,0.163,0.011,0.021,-0.019
0.140,0.160,0.020,-0.150,0.060,0.090,0.335,0.725,0.180,0.015,0.025,-0.015
0.140,0.160,0.020,-0.150,0.060,0.090,0.344,0.754,0.197,0.027,0.033,-0.015
0.137,0.160,0.023,-0.149,0.057,0.091,0.348,0.772,0.205,0.037,0.038,-0.015
0.133,0.160,0.027,-0.147,0.053,0.093,0.354,0.793,0.219,0.043,0.042,-0.016
0.129,0.161,0.032,-0.145,0.049,0.096,0.361,0.813,0.231,0.053,0.046,-0.013
0.130,0.170,0.040,-0.150,0.045,0.105,0.365,0.820,0.230,0.065,0.050,-0.005
0.143,0.188,0.044,-0.166,0.050,0.115,0.382,0.845,0.253,0.073,0.062,-0.001
0.140,0.188,0.048,-0.164,0.046,0.118,0.389,0.855,0.273,0.081,0.071,0.006
0.134,0.184,0.050,-0.159,0.041,0.117,0.394,0.873,0.287,0.089,0.081,0.012
0.135,0.185,0.050,-0.160,0.042,0.117,0.401,0.900,0.304,0.098,0.092,0.017
0.130,0.180,0.050,-0.155,0.040,0.115,0.405,0.910,0.320,0.110,0.095,0.025
0.128,0.178,0.050,-0.153,0.039,0.114,0.409,0.923,0.329,0.118,0.094,0.029
0.145,0.195,0.049,-0.170,0.048,0.122,0.409,0.928,0.333,0.126,0.106,0.035
0.159,0.211,0.052,-0.186,0.053,0.131,0.413,0.935,0.338,0.134,0.121,0.046
0.160,0.216,0.055,-0.189,0.052,0.136,0.422,0.947,0.348,0.143,0.125,0.057
0.165,0.220,0.055,-0.193,0.055,0.137,0.425,0.950,0.360,0.155,0.130,0.065
0.176,0.231,0.055,-0.204,0.060,0.143,0.421,0.950,0.369,0.167,0.147,0.081
0.194,0.249,0.056,-0.222,0.069,0.152,0.416,0.949,0.374,0.178,0.153,0.090
0.218,0.271,0.054,-0.245,0.082,0.162,0.415,0.952,0.389,0.180,0.160,0.088
0.230,0.288,0.058,-0.259,0.086,0.173,0.415,0.955,0.401,0.190,0.173,0.093
0.220,0.290,0.070,-0.255,0.075,0.180,0.410,0.955,0.395,0.215,0.180,0.110
0.222,0.288,0.066,-0.255,0.078,0.177,0.405,0.956,0.394,0.212,0.188,0.115
0.238,0.302,0.064,-0.271,0.087,0.183,0.406,0.944,0.396,0.209,0.193,0.114
0.247,0.312,0.066,-0.280,0.090,0.188,0.400,0.927,0.393,0.211,0.197,0.118
0.245,0.309,0.064,-0.278,0.091,0.186,0.388,0.910,0.389,0.209,0.200,0.127
0.250,0.310,0.060,-0.280,0.095,0.185,0.380,0.885,0.390,0.205,0.200,0.130
0.251,0.311,0.060,-0.281,0.096,0.185,0.368,0.861,0.391,0.205,0.204,0.126
0.246,0.306,0.061,-0.276,0.093,0.184,0.359,0.834,0.382,0.206,0.206,0.125
0.265,0.323,0.058,-0.294,0.103,0.190,0.348,0.808,0.368,0.203,0.203,0.125
0.286,0.340,0.055,-0.314,0.116,0.197,0.331,0.783,0.358,0.200,0.199,0.125
0.270,0.325,0.055,-0.298,0.107,0.190,0.315,0.755,0.350,0.200,0.195,0.125
0.261,0.316,0.055,-0.289,0.103,0.186,0.298,0.727,0.338,0.200,0.195,0.121
0.254,0.310,0.056,-0.282,0.098,0.183,0.287,0.695,0.325,0.201,0.192,0.120
0.247,0.299,0.052,-0.274,0.098,0.175,0.268,0.667,0.316,0.195,0.190,0.120
0.244,0.288,0.043,-0.266,0.100,0.165,0.238,0.635,0.307,0.182,0.190,0.120
0.240,0.280,0.040,-0.260,0.100,0.160,0.215,0.590,0.290,0.175,0.185,0.120
0.236,0.272,0.036,-0.254,0.100,0.154,0.198,0.549,0.274,0.167,0.180,0.120
0.235,0.264,0.029,-0.250,0.103,0.146,0.186,0.513,0.258,0.156,0.180,0.117
0.234,0.256,0.022,-0.245,0.106,0.139,0.174,0.477,0.243,0.145,0.178,0.114
0.229,0.248,0.019,-0.238,0.105,0.134,0.162,0.441,0.225,0.138,0.175,0.115
0.225,0.240,0.015,-0.233,0.105,0.127,0.150,0.405,0.200,0.130,0.175,0.115
0.221,0.232,0.011,-0.227,0.105,0.121,0.138,0.373,0.175,0.114,0.164,0.115
0.214,0.223,0.010,-0.219,0.102,0.117,0.125,0.344,0.160,0.101,0.151,0.116
0.208,0.218,0.011,-0.213,0.098,0.114,0.116,0.317,0.150,0.089,0.139,0.112
0.203,0.213,0.009,-0.208,0.097,0.110,0.107,0.287,0.135,0.077,0.128,0.103
0.195,0.200,0.005,-0.198,0.095,0.102,0.095,0.250,0.110,0.065,0.120,0.095
0.187,0.192,0.005,-0.190,0.091,0.098,0.083,0.213,0.085,0.053,0.108,0.091
0.179,0.184,0.005,-0.182,0.087,0.094,0.074,0.183,0.067,0.044,0.099,0.085
0.171,0.176,0.005,-0.174,0.083,0.090,0.066,0.158,0.054,0.034,0.089,0.075
0.164,0.168,0.004,-0.166,0.080,0.086,0.059,0.134,0.041,0.023,0.078,0.069
0.160,0.160,0.000,-0.160,0.080,0.080,0.055,0.115,0.025,0.015,0.070,0.065
0.152,0.152,0.000,-0.152,0.076,0.076,0.047,0.099,0.013,-0.001,0.058,0.053
0.144,0.144,0.000,-0.144,0.072,0.072,0.042,0.080,-0.002,-0.014,0.049,0.043
0.135,0.136,0.000,-0.135,0.067,0.068,0.036,0.061,-0.018,-0.028,0.041,0.036
0.130,0.129,-0.001,-0.129,0.065,0.064,0.029,0.046,-0.034,-0.043,0.033,0.028
0.130,0.125,-0.005,-0.127,0.067,0.060,0.025,0.030,-0.050,-0.055,0.025,0.020
0.123,0.117,-0.005,-0.119,0.063,0.056,0.021,0.014,-0.062,-0.067,0.017,0.012
0.113,0.108,-0.004,-0.110,0.058,0.052,0.019,-0.002,-0.072,-0.077,0.009,0.004
0.110,0.103,-0.007,-0.106,0.058,0.048,0.021,-0.017,-0.076,-0.082,0.001,-0.003
0.109,0.099,-0.010,-0.104,0.060,0.044,0.019,-0.027,-0.083,-0.087,-0.006,-0.005
0.105,0.095,-0.010,-0.100,0.057,0.042,0.015,-0.030,-0.100,-0.095,-0.010,-0.005
0.101,0.091,-0.010,-0.096,0.056,0.040,0.015,-0.032,-0.109,-0.099,-0.018,-0.009
0.096,0.087,-0.009,-0.092,0.053,0.038,0.015,-0.050,-0.113,-0.102,-0.023,-0.010
0.095,0.083,-0.012,-0.089,0.053,0.035,0.015,-0.066,-0.119,-0.111,-0.029,-0.012
0.094,0.079,-0.015,-0.086,0.055,0.031,0.014,-0.071,-0.126,-0.122,-0.036,-0.016
0.090,0.075,-0.015,-0.082,0.052,0.030,0.010,-0.075,-0.130,-0.125,-0.040,-0.015
0.090,0.075,-0.015,-0.082,0.052,0.030,0.010,-0.083,-0.135,-0.130,-0.048,-0.014
0.087,0.073,-0.015,-0.079,0.051,0.029,0.010,-0.088,-0.133,-0.127,-0.053,-0.018
0.084,0.067,-0.016,-0.075,0.050,0.025,0.010,-0.092,-0.142,-0.124,-0.057,-0.020
0.086,0.065,-0.021,-0.076,0.053,0.021,0.009,-0.095,-0.158,-0.125,-0.060,-0.021
0.090,0.065,-0.025,-0.077,0.057,0.020,0.005,-0.095,-0.160,-0.125,-0.060,-0.025
0.086,0.061,-0.025,-0.073,0.055,0.018,0.005,-0.095,-0.160,-0.125,-0.060,-0.025
0.087,0.060,-0.027,-0.073,0.057,0.016,0.006,-0.098,-0.160,-0.125,-0.060,-0.028
0.092,0.059,-0.033,-0.075,0.062,0.013,0.003,-0.101,-0.160,-0.125,-0.060,-0.031
0.088,0.054,-0.034,-0.070,0.061,0.010,0.000,-0.100,-0.160,-0.125,-0.060,-0.030
0.085,0.050,-0.035,-0.067,0.060,0.007,0.000,-0.100,-0.160,-0.125,-0.060,-0.030
0.107,0.050,-0.056,-0.078,0.081,-0.003,0.000,-0.104,-0.160,-0.125,-0.060,-0.034
0.106,0.047,-0.059,-0.076,0.082,-0.006,0.001,-0.105,-0.160,-0.125,-0.060,-0.035
0.099,0.045,-0.054,-0.071,0.076,-0.004,-0.002,-0.105,-0.160,-0.125,-0.060,-0.035
0.100,0.044,-0.055,-0.071,0.077,-0.005,-0.005,-0.105,-0.160,-0.126,-0.060,-0.035
0.095,0.040,-0.055,-0.067,0.075,-0.007,-0.005,-0.105,-0.160,-0.135,-0.060,-0.035
0.095,0.040,-0.055,-0.067,0.075,-0.007,-0.005,-0.101,-0.160,-0.148,-0.060,-0.035
0.095,0.040,-0.055,-0.067,0.075,-0.007,-0.004,-0.100,-0.160,-0.148,-0.063,-0.035
0.095,0.040,-0.055,-0.067,0.075,-0.007,-0.007,-0.100,-0.160,-0.144,-0.066,-0.035
0.095,0.040,-0.055,-0.067,0.075,-0.007,-0.010,-0.100,-0.160,-0.145,-0.065,-0.035
0.095,0.040,-0.055,-0.067,0.075,-0.007,-0.010,-0.100,-0.160,-0.145,-0.065,-0.035
0.091,0.040,-0.051,-0.065,0.071,-0.005,-0.010,-0.100,-0.160,-0.145,-0.065,-0.035
0.090,0.041,-0.050,-0.065,0.070,-0.005,-0.010,-0.100,-0.160,-0.145,-0.065,-0.035
0.088,0.038,-0.050,-0.063,0.069,-0.006,-0.010,-0.100,-0.160,-0.145,-0.065,-0.035
0.085,0.035,-0.050,-0.060,0.067,-0.007,-0.010,-0.100,-0.160,-0.145,-0.065,-0.035
0.085,0.035,-0.050,-0.060,0.067,-0.007,-0.010,-0.100,-0.160,-0.145,-0.065,-0.035
0.085,0.035,-0.050,-0.060,0.067,-0.007,-0.010,-0.100,-0.160,-0.145,-0.065,-0.035
0.085,0.035,-0.050,-0.060,0.067,-0.007,-0.010,-0.100,-0.160,-0.145,-0.065,-0.035
0.085,0.035,-0.050,-0.060,0.067,-0.007,-0.010,-0.100,-0.160,-0.145,-0.065,-0.037
0.084,0.035,-0.049,-0.059,0.066,-0.007,-0.010,-0.100,-0.160,-0.145,-0.065,-0.041
0.080,0.035,-0.045,-0.057,0.062,-0.005,-0.010,-0.100,-0.160,-0.145,-0.065,-0.040
0.080,0.035,-0.045,-0.057,0.062,-0.005,-0.006,-0.100,-0.160,-0.145,-0.061,-0.036
0.077,0.032,-0.045,-0.054,0.061,-0.006,-0.005,-0.100,-0.157,-0.145,-0.060,-0.035
0.074,0.029,-0.045,-0.051,0.060,-0.007,-0.005,-0.100,-0.154,-0.145,-0.060,-0.035
0.075,0.030,-0.045,-0.052,0.060,-0.007,-0.005,-0.100,-0.155,-0.145,-0.060,-0.035
0.075,0.030,-0.045,-0.052,0.060,-0.007,-0.005,-0.100,-0.155,-0.145,-0.060,-0.035
0.075,0.030,-0.045,-0.052,0.060,-0.007,-0.005,-0.100,-0.155,-0.145,-0.060,-0.035
0.075,0.030,-0.045,-0.052,0.060,-0.007,-0.005,-0.100,-0.152,-0.145,-0.060,-0.032
0.075,0.030,-0.045,-0.052,0.060,-0.007,-0.005,-0.100,-0.149,-0.145,-0.060,-0.029
0.074,0.030,-0.044,-0.052,0.059,-0.007,-0.005,-0.100,-0.150,-0.145,-0.060,-0.030
0.070,0.030,-0.040,-0.050,0.055,-0.005,-0.005,-0.100,-0.150,-0.145,-0.060,-0.030
0.069,0.030,-0.040,-0.049,0.055,-0.005,-0.005,-0.100,-0.150,-0.145,-0.060,-0.030
0.073,0.033,-0.040,-0.053,0.056,-0.003,-0.005,-0.099,-0.147,-0.145,-0.060,-0.030
0.075,0.036,-0.040,-0.056,0.057,-0.002,-0.005,-0.102,-0.144,-0.145,-0.060,-0.030
0.075,0.035,-0.040,-0.055,0.057,-0.002,-0.004,-0.105,-0.145,-0.144,-0.059,-0.029
0.075,0.035,-0.040,-0.055,0.057,-0.002,0.000,-0.105,-0.145,-0.140,-0.055,-0.025
0.075,0.035,-0.040,-0.055,0.057,-0.002,0.000,-0.105,-0.145,-0.140,-0.055,-0.025
0.075,0.035,-0.040,-0.055,0.057,-0.002,0.000,-0.105,-0.146,-0.140,-0.055,-0.025
0.074,0.035,-0.040,-0.055,0.057,-0.002,0.000,-0.105,-0.143,-0.140,-0.055,-0.025
0.076,0.036,-0.040,-0.056,0.058,-0.002,0.000,-0.105,-0.140,-0.139,-0.055,-0.025
0.080,0.040,-0.040,-0.060,0.060,0.000,0.000,-0.105,-0.140,-0.135,-0.055,-0.025
0.076,0.040,-0.036,-0.058,0.056,0.002,0.000,-0.105,-0.140,-0.135,-0.055,-0.021
0.074,0.040,-0.035,-0.057,0.055,0.002,0.000,-0.105,-0.141,-0.135,-0.055,-0.020
0.075,0.040,-0.035,-0.057,0.055,0.002,0.000,-0.105,-0.138,-0.135,-0.055,-0.020
0.075,0.040,-0.035,-0.057,0.055,0.002,0.000,-0.105,-0.135,-0.134,-0.055,-0.020
0.075,0.040,-0.035,-0.057,0.055,0.002,0.000,-0.105,-0.135,-0.130,-0.055,-0.020
0.075,0.040,-0.035,-0.057,0.055,0.002,0.000,-0.105,-0.135,-0.130,-0.055,-0.020
0.078,0.043,-0.035,-0.060,0.056,0.004,0.001,-0.105,-0.135,-0.130,-0.055,-0.019
0.081,0.046,-0.035,-0.063,0.057,0.005,-0.002,-0.105,-0.135,-0.130,-0.055,-0.022
0.080,0.045,-0.035,-0.062,0.057,0.005,-0.005,-0.105,-0.136,-0.130,-0.055,-0.025
0.080,0.045,-0.035,-0.062,0.057,0.005,-0.005,-0.105,-0.140,-0.130,-0.055,-0.025
0.085,0.049,-0.035,-0.066,0.060,0.006,-0.005,-0.105,-0.140,-0.126,-0.055,-0.025
0.082,0.051,-0.032,-0.066,0.057,0.009,-0.005,-0.105,-0.140,-0.125,-0.055,-0.028
0.079,0.049,-0.030,-0.064,0.055,0.010,-0.005,-0.105,-0.140,-0.125,-0.055,-0.031
0.080,0.051,-0.029,-0.066,0.055,0.011,-0.006,-0.105,-0.140,-0.125,-0.055,-0.030
0.080,0.055,-0.025,-0.067,0.052,0.015,-0.010,-0.105,-0.140,-0.125,-0.055,-0.030
0.082,0.057,-0.025,-0.069,0.053,0.015,-0.010,-0.105,-0.140,-0.121,-0.055,-0.034
0.101,0.079,-0.022,-0.090,0.062,0.029,-0.010,-0.105,-0.139,-0.120,-0.055,-0.035
0.112,0.092,-0.020,-0.102,0.066,0.035,-0.010,-0.105,-0.142,-0.120,-0.055,-0.035
0.102,0.083,-0.019,-0.093,0.060,0.032,-0.010,-0.105,-0.145,-0.120,-0.055,-0.035
0.100,0.080,-0.020,-0.090,0.060,0.030,-0.010,-0.105,-0.145,-0.120,-0.055,-0.035
0.126,0.076,-0.050,-0.100,0.087,0.013,-0.010,-0.109,-0.145,-0.120,-0.055,-0.035
0.127,0.075,-0.052,-0.100,0.089,0.011,-0.013,-0.111,-0.145,-0.123,-0.055,-0.035
0.115,0.074,-0.042,-0.094,0.078,0.016,-0.016,-0.109,-0.145,-0.125,-0.055,-0.035
0.107,0.069,-0.038,-0.088,0.073,0.015,-0.015,-0.111,-0.145,-0.126,-0.055,-0.035
0.095,0.065,-0.030,-0.080,0.062,0.017,-0.015,-0.115,-0.145,-0.130,-0.055,-0.035
0.091,0.065,-0.026,-0.078,0.058,0.019,-0.015,-0.115,-0.145,-0.130,-0.055,-0.035
0.082,0.063,-0.019,-0.072,0.051,0.021,-0.014,-0.114,-0.147,-0.133,-0.055,-0.038
0.069,0.057,-0.011,-0.063,0.040,0.022,-0.017,-0.117,-0.153,-0.135,-0.055,-0.041
0.066,0.055,-0.011,-0.060,0.038,0.021,-0.020,-0.120,-0.154,-0.136,-0.055,-0.040
0.075,0.055,-0.020,-0.065,0.047,0.017,-0.020,-0.120,-0.150,-0.140,-0.055,-0.040
0.080,0.051,-0.029,-0.065,0.055,0.011,-0.020,-0.120,-0.150,-0.140,-0.055,-0.040
0.077,0.050,-0.028,-0.063,0.053,0.011,-0.020,-0.123,-0.150,-0.140,-0.055,-0.040
0.073,0.049,-0.024,-0.060,0.048,0.012,-0.020,-0.126,-0.150,-0.140,-0.055,-0.040
0.069,0.044,-0.025,-0.056,0.047,0.009,-0.020,-0.125,-0.150,-0.140,-0.055,-0.040
0.070,0.045,-0.025,-0.057,0.047,0.010,-0.020,-0.125,-0.150,-0.140,-0.055,-0.040
0.082,0.058,-0.025,-0.070,0.054,0.016,-0.024,-0.129,-0.150,-0.140,-0.059,-0.040
0.087,0.061,-0.026,-0.073,0.056,0.017,-0.025,-0.133,-0.151,-0.139,-0.063,-0.039
0.083,0.060,-0.023,-0.071,0.053,0.018,-0.025,-0.137,-0.148,-0.142,-0.067,-0.042
0.080,0.060,-0.020,-0.070,0.050,0.020,-0.025,-0.140,-0.145,-0.145,-0.070,-0.045
0.080,0.060,-0.020,-0.070,0.050,0.020,-0.025,-0.140,-0.145,-0.145,-0.070,-0.045
0.080,0.060,-0.020,-0.070,0.050,0.020,-0.029,-0.144,-0.145,-0.145,-0.074,-0.045
0.080,0.060,-0.020,-0.070,0.050,0.020,-0.030,-0.145,-0.145,-0.145,-0.075,-0.045
0.080,0.060,-0.020,-0.070,0.050,0.020,-0.030,-0.145,-0.145,-0.145,-0.075,-0.045
0.080,0.060,-0.020,-0.070,0.050,0.020,-0.030,-0.145,-0.145,-0.145,-0.075,-0.045
0.080,0.060,-0.020,-0.070,0.050,0.020,-0.030,-0.145,-0.145,-0.145,-0.075,-0.045
0.076,0.060,-0.016,-0.067,0.046,0.022,-0.030,-0.145,-0.145,-0.145,-0.075,-0.045
0.075,0.060,-0.015,-0.067,0.045,0.022,-0.033,-0.145,-0.148,-0.148,-0.075,-0.045
0.075,0.060,-0.015,-0.067,0.045,0.022,-0.036,-0.145,-0.151,-0.151,-0.075,-0.045
0.075,0.060,-0.015,-0.067,0.045,0.022,-0.035,-0.145,-0.158,-0.150,-0.075,-0.045
0.075,0.060,-0.015,-0.067,0.045,0.022,-0.035,-0.145,-0.170,-0.150,-0.075,-0.045
0.075,0.060,-0.015,-0.067,0.045,0.022,-0.035,-0.145,-0.171,-0.150,-0.075,-0.045
0.072,0.060,-0.012,-0.066,0.042,0.024,-0.038,-0.145,-0.170,-0.150,-0.075,-0.045
0.069,0.060,-0.009,-0.065,0.039,0.025,-0.041,-0.145,-0.170,-0.150,-0.075,-0.045
0.070,0.060,-0.010,-0.065,0.040,0.025,-0.040,-0.146,-0.170,-0.150,-0.075,-0.045
0.070,0.060,-0.010,-0.065,0.040,0.025,-0.040,-0.150,-0.170,-0.150,-0.075,-0.045
0.070,0.060,-0.010,-0.065,0.040,0.025,-0.040,-0.150,-0.170,-0.150,-0.075,-0.045
0.070,0.060,-0.010,-0.065,0.040,0.025,-0.041,-0.150,-0.170,-0.150,-0.075,-0.045
0.070,0.060,-0.010,-0.065,0.040,0.025,-0.038,-0.150,-0.170,-0.150,-0.075,-0.045
0.069,0.060,-0.009,-0.065,0.039,0.025,-0.035,-0.150,-0.170,-0.150,-0.075,-0.045
0.065,0.060,-0.005,-0.062,0.035,0.027,-0.035,-0.150,-0.170,-0.150,-0.075,-0.045
0.065,0.060,-0.005,-0.062,0.035,0.027,-0.035,-0.150,-0.170,-0.150,-0.075,-0.045
0.066,0.060,-0.006,-0.062,0.036,0.027,-0.035,-0.150,-0.170,-0.150,-0.075,-0.045
0.063,0.060,-0.003,-0.062,0.033,0.028,-0.035,-0.150,-0.170,-0.150,-0.075,-0.045
0.059,0.059,0.000,-0.059,0.029,0.030,-0.035,-0.150,-0.170,-0.150,-0.075,-0.045
0.055,0.055,0.000,-0.055,0.027,0.027,-0.035,-0.150,-0.170,-0.150,-0.075,-0.045
0.055,0.055,0.000,-0.055,0.027,0.027,-0.035,-0.150,-0.170,-0.150,-0.075,-0.049
0.056,0.055,0.000,-0.055,0.028,0.027,-0.032,-0.150,-0.170,-0.150,-0.076,-0.050
0.053,0.055,0.002,-0.054,0.025,0.028,-0.029,-0.152,-0.170,-0.150,-0.073,-0.052
0.050,0.055,0.005,-0.053,0.022,0.030,-0.030,-0.156,-0.170,-0.150,-0.070,-0.056
0.050,0.055,0.005,-0.053,0.022,0.030,-0.030,-0.155,-0.170,-0.150,-0.070,-0.055
0.050,0.055,0.005,-0.053,0.022,0.030,-0.030,-0.151,-0.170,-0.150,-0.070,-0.051
0.047,0.055,0.008,-0.051,0.019,0.031,-0.030,-0.150,-0.170,-0.150,-0.070,-0.050
0.044,0.055,0.011,-0.050,0.016,0.032,-0.030,-0.150,-0.170,-0.150,-0.070,-0.050
0.045,0.055,0.010,-0.050,0.017,0.032,-0.030,-0.150,-0.170,-0.150,-0.070,-0.050
0.045,0.055,0.010,-0.050,0.017,0.032,-0.030,-0.150,-0.170,-0.150,-0.070,-0.050
0.045,0.055,0.010,-0.050,0.017,0.032,-0.026,-0.150,-0.170,-0.150,-0.070,-0.050
0.048,0.055,0.007,-0.052,0.020,0.031,-0.025,-0.150,-0.169,-0.150,-0.070,-0.050
0.052,0.055,0.003,-0.054,0.024,0.029,-0.025,-0.150,-0.172,-0.150,-0.070,-0.050
0.056,0.055,-0.001,-0.055,0.028,0.027,-0.025,-0.150,-0.175,-0.150,-0.070,-0.050
0.060,0.055,-0.005,-0.057,0.032,0.025,-0.025,-0.150,-0.175,-0.150,-0.070,-0.050
0.064,0.055,-0.009,-0.059,0.036,0.023,-0.025,-0.150,-0.175,-0.150,-0.070,-0.050
0.068,0.055,-0.013,-0.061,0.040,0.021,-0.025,-0.150,-0.175,-0.150,-0.070,-0.050
0.073,0.055,-0.018,-0.063,0.045,0.018,-0.025,-0.150,-0.175,-0.150,-0.070,-0.050
0.075,0.055,-0.019,-0.065,0.047,0.017,-0.025,-0.150,-0.175,-0.151,-0.070,-0.049
0.070,0.055,-0.015,-0.062,0.042,0.020,-0.025,-0.150,-0.175,-0.155,-0.070,-0.045
0.068,0.053,-0.015,-0.060,0.041,0.019,-0.029,-0.150,-0.175,-0.155,-0.070,-0.045
0.080,0.068,-0.012,-0.074,0.045,0.028,-0.030,-0.150,-0.175,-0.155,-0.070,-0.045
0.085,0.075,-0.010,-0.080,0.047,0.032,-0.030,-0.150,-0.175,-0.155,-0.070,-0.045
0.078,0.069,-0.009,-0.074,0.044,0.030,-0.030,-0.150,-0.175,-0.155,-0.070,-0.045
0.075,0.070,-0.005,-0.072,0.040,0.032,-0.030,-0.150,-0.175,-0.155,-0.070,-0.045
0.075,0.070,-0.005,-0.072,0.040,0.032,-0.030,-0.150,-0.175,-0.155,-0.070,-0.045
0.072,0.070,-0.002,-0.071,0.037,0.034,-0.030,-0.150,-0.178,-0.155,-0.070,-0.045
0.070,0.070,0.000,-0.070,0.035,0.035,-0.030,-0.150,-0.181,-0.155,-0.070,-0.045
0.069,0.069,0.001,-0.069,0.034,0.035,-0.031,-0.150,-0.180,-0.155,-0.070,-0.045
0.060,0.065,0.005,-0.063,0.027,0.035,-0.035,-0.150,-0.180,-0.155,-0.070,-0.045
0.059,0.065,0.006,-0.063,0.026,0.035,-0.035,-0.150,-0.180,-0.155,-0.074,-0.045
0.063,0.065,0.002,-0.064,0.030,0.033,-0.035,-0.149,-0.180,-0.154,-0.076,-0.044
0.066,0.065,-0.001,-0.065,0.033,0.032,-0.035,-0.152,-0.180,-0.157,-0.074,-0.047
0.065,0.065,0.000,-0.065,0.032,0.032,-0.035,-0.155,-0.180,-0.160,-0.076,-0.050
0.065,0.065,0.000,-0.065,0.032,0.032,-0.035,-0.155,-0.180,-0.160,-0.080,-0.050
0.070,0.065,-0.004,-0.067,0.036,0.031,-0.035,-0.155,-0.180,-0.160,-0.080,-0.054
0.067,0.062,-0.005,-0.064,0.036,0.028,-0.034,-0.155,-0.180,-0.160,-0.080,-0.055
0.064,0.059,-0.005,-0.061,0.035,0.027,-0.037,-0.155,-0.180,-0.160,-0.078,-0.057
0.065,0.060,-0.005,-0.062,0.035,0.027,-0.040,-0.155,-0.180,-0.160,-0.075,-0.061
0.065,0.060,-0.005,-0.062,0.035,0.027,-0.040,-0.155,-0.180,-0.160,-0.075,-0.060
0.069,0.060,-0.009,-0.064,0.039,0.025,-0.040,-0.155,-0.176,-0.160,-0.075,-0.056
0.071,0.061,-0.011,-0.066,0.041,0.025,-0.040,-0.155,-0.175,-0.160,-0.075,-0.055
0.068,0.058,-0.009,-0.063,0.038,0.024,-0.040,-0.155,-0.175,-0.160,-0.075,-0.055
0.065,0.055,-0.011,-0.060,0.038,0.021,-0.040,-0.155,-0.175,-0.160,-0.075,-0.055
0.070,0.055,-0.015,-0.062,0.042,0.020,-0.040,-0.155,-0.175,-0.160,-0.075,-0.055
0.070,0.055,-0.015,-0.062,0.042,0.020,-0.040,-0.155,-0.175,-0.160,-0.075,-0.055
0.070,0.055,-0.015,-0.062,0.042,0.020,-0.041,-0.155,-0.175,-0.157,-0.075,-0.055
0.071,0.055,-0.015,-0.062,0.043,0.020,-0.038,-0.155,-0.175,-0.154,-0.075,-0.055
0.069,0.055,-0.014,-0.062,0.041,0.020,-0.035,-0.155,-0.174,-0.155,-0.075,-0.055
0.065,0.055,-0.010,-0.060,0.037,0.022,-0.035,-0.155,-0.170,-0.155,-0.075,-0.055
0.065,0.055,-0.010,-0.060,0.037,0.022,-0.035,-0.155,-0.170,-0.155,-0.075,-0.055
0.062,0.055,-0.007,-0.058,0.034,0.024,-0.035,-0.155,-0.170,-0.155,-0.075,-0.055
0.060,0.055,-0.005,-0.057,0.032,0.025,-0.035,-0.155,-0.170,-0.155,-0.075,-0.055
0.059,0.055,-0.004,-0.057,0.031,0.025,-0.035,-0.155,-0.170,-0.155,-0.075,-0.055
0.055,0.055,0.000,-0.055,0.027,0.027,-0.035,-0.155,-0.170,-0.155,-0.075,-0.055
0.056,0.055,0.000,-0.056,0.027,0.027,-0.035,-0.155,-0.170,-0.155,-0.075,-0.055
0.050,0.053,0.003,-0.051,0.023,0.028,-0.035,-0.155,-0.171,-0.155,-0.075,-0.055
0.058,0.063,0.005,-0.061,0.026,0.034,-0.035,-0.155,-0.168,-0.155,-0.075,-0.055
0.070,0.076,0.006,-0.073,0.032,0.041,-0.035,-0.155,-0.165,-0.155,-0.075,-0.055
0.060,0.070,0.010,-0.065,0.025,0.040,-0.035,-0.155,-0.165,-0.155,-0.075,-0.055
0.059,0.070,0.011,-0.064,0.024,0.040,-0.035,-0.151,-0.165,-0.155,-0.075,-0.055
0.063,0.070,0.007,-0.067,0.028,0.038,-0.032,-0.150,-0.165,-0.155,-0.075,-0.055
0.066,0.070,0.004,-0.068,0.031,0.037,-0.029,-0.150,-0.165,-0.155,-0.075,-0.055
0.065,0.070,0.005,-0.068,0.030,0.037,-0.030,-0.150,-0.165,-0.155,-0.075,-0.055
0.065,0.070,0.005,-0.068,0.030,0.037,-0.030,-0.150,-0.165,-0.155,-0.075,-0.055
0.069,0.070,0.001,-0.070,0.034,0.035,-0.030,-0.150,-0.165,-0.155,-0.079,-0.055
0.071,0.070,-0.001,-0.070,0.036,0.035,-0.030,-0.150,-0.164,-0.155,-0.080,-0.054
0.069,0.070,0.001,-0.070,0.034,0.035,-0.030,-0.150,-0.167,-0.155,-0.080,-0.057
0.071,0.070,-0.001,-0.070,0.036,0.035,-0.030,-0.150,-0.170,-0.155,-0.080,-0.060
0.075,0.070,-0.005,-0.072,0.040,0.032,-0.030,-0.150,-0.170,-0.155,-0.080,-0.060
0.075,0.070,-0.005,-0.072,0.040,0.032,-0.030,-0.150,-0.170,-0.155,-0.080,-0.060
0.075,0.071,-0.004,-0.072,0.040,0.033,-0.030,-0.147,-0.173,-0.155,-0.079,-0.060
0.075,0.068,-0.007,-0.071,0.041,0.030,-0.030,-0.144,-0.175,-0.155,-0.082,-0.060
0.075,0.065,-0.010,-0.070,0.042,0.027,-0.030,-0.145,-0.175,-0.154,-0.085,-0.060
0.075,0.065,-0.010,-0.070,0.042,0.027,-0.030,-0.145,-0.175,-0.150,-0.085,-0.060
0.075,0.065,-0.010,-0.070,0.042,0.027,-0.030,-0.145,-0.171,-0.146,-0.085,-0.060
0.078,0.065,-0.013,-0.071,0.045,0.026,-0.030,-0.145,-0.166,-0.142,-0.085,-0.060
0.081,0.065,-0.016,-0.072,0.048,0.025,-0.030,-0.145,-0.165,-0.138,-0.085,-0.060
0.080,0.065,-0.015,-0.072,0.047,0.025,-0.030,-0.145,-0.164,-0.134,-0.086,-0.060
0.080,0.065,-0.015,-0.072,0.047,0.025,-0.030,-0.145,-0.160,-0.130,-0.090,-0.060
0.084,0.065,-0.019,-0.075,0.051,0.022,-0.030,-0.145,-0.155,-0.130,-0.090,-0.060
0.085,0.065,-0.020,-0.075,0.052,0.022,-0.031,-0.146,-0.156,-0.127,-0.090,-0.060
0.086,0.065,-0.021,-0.075,0.053,0.021,-0.025,-0.140,-0.152,-0.125,-0.090,-0.060
0.083,0.065,-0.018,-0.074,0.050,0.023,-0.013,-0.127,-0.143,-0.124,-0.090,-0.060
0.070,0.065,-0.005,-0.067,0.037,0.030,-0.005,-0.120,-0.135,-0.120,-0.090,-0.060
0.060,0.063,0.003,-0.062,0.028,0.033,0.007,-0.113,-0.127,-0.120,-0.086,-0.056
0.067,0.078,0.011,-0.073,0.028,0.044,0.017,-0.101,-0.119,-0.117,-0.082,-0.052
0.083,0.102,0.019,-0.093,0.032,0.060,0.021,-0.091,-0.112,-0.115,-0.078,-0.048
0.091,0.117,0.027,-0.104,0.031,0.072,0.029,-0.083,-0.102,-0.114,-0.074,-0.044
0.085,0.120,0.035,-0.103,0.025,0.077,0.050,-0.075,-0.095,-0.110,-0.070,-0.040
0.076,0.120,0.044,-0.099,0.016,0.081,0.055,-0.070,-0.108,-0.110,-0.066,-0.036
0.077,0.120,0.043,-0.099,0.017,0.081,0.055,-0.070,-0.108,-0.107,-0.062,-0.035
0.083,0.120,0.037,-0.102,0.023,0.079,0.055,-0.070,-0.104,-0.105,-0.058,-0.034
0.085,0.120,0.035,-0.103,0.025,0.077,0.055,-0.070,-0.105,-0.104,-0.054,-0.029
0.085,0.120,0.035,-0.103,0.025,0.077,0.055,-0.070,-0.105,-0.100,-0.050,-0.025
0.093,0.124,0.031,-0.109,0.031,0.077,0.055,-0.070,-0.101,-0.100,-0.046,-0.021
0.096,0.125,0.030,-0.110,0.032,0.077,0.055,-0.071,-0.100,-0.097,-0.042,-0.017
0.096,0.125,0.029,-0.111,0.033,0.076,0.056,-0.067,-0.100,-0.094,-0.038,-0.013
0.101,0.125,0.024,-0.114,0.038,0.074,0.054,-0.058,-0.100,-0.096,-0.034,-0.009
0.105,0.125,0.020,-0.115,0.042,0.072,0.055,-0.055,-0.100,-0.100,-0.035,-0.005
0.104,0.124,0.020,-0.114,0.041,0.072,0.081,-0.052,-0.100,-0.100,-0.039,-0.005
0.114,0.131,0.017,-0.123,0.048,0.074,0.079,-0.044,-0.100,-0.100,-0.040,-0.005
0.123,0.138,0.015,-0.131,0.054,0.077,0.064,-0.038,-0.100,-0.100,-0.040,-0.005
0.126,0.140,0.014,-0.133,0.056,0.076,0.059,-0.033,-0.100,-0.100,-0.040,-0.005
0.130,0.135,0.005,-0.133,0.062,0.070,0.050,-0.030,-0.100,-0.100,-0.040,-0.005
0.129,0.131,0.001,-0.130,0.064,0.066,0.038,-0.041,-0.100,-0.100,-0.040,-0.005
0.136,0.130,-0.006,-0.133,0.071,0.062,0.028,-0.054,-0.100,-0.103,-0.040,-0.005
0.141,0.129,-0.012,-0.135,0.076,0.058,0.022,-0.068,-0.100,-0.106,-0.040,-0.006
0.141,0.124,-0.017,-0.132,0.078,0.053,0.012,-0.082,-0.100,-0.105,-0.040,-0.011
0.145,0.120,-0.025,-0.132,0.085,0.047,0.000,-0.085,-0.100,-0.105,-0.040,-0.015
0.148,0.121,-0.028,-0.134,0.088,0.046,-0.008,-0.088,-0.099,-0.105,-0.040,-0.015
0.160,0.115,-0.045,-0.137,0.102,0.035,-0.019,-0.096,-0.106,-0.105,-0.039,-0.018
0.166,0.105,-0.061,-0.135,0.114,0.022,-0.029,-0.102,-0.113,-0.105,-0.042,-0.020
0.165,0.099,-0.066,-0.132,0.116,0.016,-0.038,-0.107,-0.116,-0.106,-0.045,-0.021
0.165,0.095,-0.070,-0.130,0.117,0.012,-0.050,-0.115,-0.120,-0.110,-0.045,-0.025
0.154,0.087,-0.066,-0.120,0.110,0.010,-0.059,-0.118,-0.124,-0.110,-0.049,-0.025
0.140,0.078,-0.061,-0.109,0.100,0.008,-0.057,-0.135,-0.129,-0.110,-0.050,-0.027
0.133,0.073,-0.060,-0.103,0.096,0.006,-0.054,-0.150,-0.130,-0.110,-0.052,-0.033
0.128,0.069,-0.059,-0.099,0.094,0.005,-0.055,-0.150,-0.131,-0.110,-0.055,-0.035
0.120,0.065,-0.055,-0.092,0.087,0.005,-0.055,-0.150,-0.135,-0.110,-0.055,-0.035
0.116,0.061,-0.055,-0.088,0.086,0.003,-0.055,-0.154,-0.138,-0.108,-0.059,-0.039
0.110,0.057,-0.053,-0.083,0.081,0.002,-0.052,-0.155,-0.152,-0.121,-0.063,-0.040
0.101,0.053,-0.047,-0.077,0.074,0.002,-0.049,-0.156,-0.164,-0.136,-0.068,-0.042
0.094,0.049,-0.045,-0.071,0.069,0.002,-0.050,-0.162,-0.165,-0.141,-0.070,-0.046
0.090,0.045,-0.045,-0.067,0.067,0.000,-0.050,-0.170,-0.165,-0.145,-0.070,-0.045
0.086,0.045,-0.041,-0.066,0.063,0.002,-0.050,-0.175,-0.165,-0.149,-0.078,-0.039
0.082,0.042,-0.040,-0.062,0.061,0.001,-0.047,-0.172,-0.165,-0.150,-0.083,-0.055
0.078,0.040,-0.038,-0.059,0.058,0.001,-0.044,-0.169,-0.165,-0.150,-0.087,-0.070
0.074,0.039,-0.035,-0.056,0.054,0.002,-0.045,-0.170,-0.165,-0.150,-0.090,-0.070
0.070,0.035,-0.035,-0.052,0.052,0.000,-0.045,-0.170,-0.165,-0.150,-0.090,-0.070
0.070,0.035,-0.035,-0.052,0.052,0.000,-0.045,-0.170,-0.165,-0.150,-0.094,-0.070
0.071,0.036,-0.035,-0.053,0.052,0.000,-0.046,-0.170,-0.165,-0.151,-0.095,-0.070
0.068,0.033,-0.035,-0.050,0.051,-0.001,-0.043,-0.170,-0.165,-0.148,-0.097,-0.070
0.065,0.030,-0.035,-0.047,0.050,-0.002,-0.040,-0.170,-0.165,-0.145,-0.100,-0.070
0.065,0.030,-0.035,-0.047,0.050,-0.002,-0.040,-0.170,-0.165,-0.145,-0.100,-0.070
0.057,0.026,-0.031,-0.041,0.043,-0.002,-0.040,-0.166,-0.165,-0.145,-0.100,-0.070
0.054,0.024,-0.030,-0.039,0.041,-0.002,-0.041,-0.165,-0.164,-0.145,-0.100,-0.070
0.056,0.026,-0.030,-0.041,0.042,-0.002,-0.038,-0.165,-0.168,-0.145,-0.100,-0.070
0.054,0.024,-0.030,-0.039,0.042,-0.003,-0.035,-0.165,-0.177,-0.145,-0.100,-0.070
0.050,0.020,-0.030,-0.035,0.040,-0.005,-0.035,-0.165,-0.180,-0.145,-0.100,-0.070
0.050,0.020,-0.030,-0.035,0.040,-0.005,-0.035,-0.165,-0.176,-0.145,-0.100,-0.070
0.048,0.017,-0.031,-0.032,0.039,-0.006,-0.035,-0.165,-0.175,-0.145,-0.100,-0.070
0.042,0.014,-0.028,-0.028,0.035,-0.007,-0.035,-0.165,-0.175,-0.145,-0.100,-0.070
0.040,0.015,-0.025,-0.027,0.032,-0.005,-0.036,-0.164,-0.175,-0.145,-0.100,-0.070
0.040,0.015,-0.025,-0.027,0.032,-0.005,-0.040,-0.160,-0.175,-0.145,-0.100,-0.070
0.036,0.011,-0.025,-0.023,0.030,-0.007,-0.040,-0.160,-0.175,-0.145,-0.100,-0.074
0.035,0.010,-0.025,-0.022,0.030,-0.007,-0.040,-0.160,-0.175,-0.145,-0.100,-0.076
0.035,0.010,-0.025,-0.022,0.030,-0.007,-0.040,-0.160,-0.175,-0.145,-0.100,-0.074
0.035,0.010,-0.025,-0.022,0.030,-0.007,-0.040,-0.160,-0.174,-0.145,-0.100,-0.076
0.035,0.010,-0.025,-0.022,0.030,-0.007,-0.040,-0.160,-0.170,-0.145,-0.100,-0.080
0.031,0.010,-0.021,-0.020,0.026,-0.005,-0.040,-0.160,-0.170,-0.145,-0.100,-0.080
0.030,0.010,-0.020,-0.020,0.025,-0.005,-0.040,-0.160,-0.170,-0.145,-0.100,-0.080
0.030,0.010,-0.020,-0.020,0.025,-0.005,-0.040,-0.160,-0.170,-0.145,-0.100,-0.078
0.030,0.010,-0.020,-0.020,0.025,-0.005,-0.040,-0.159,-0.170,-0.145,-0.100,-0.075
0.030,0.010,-0.020,-0.020,0.025,-0.005,-0.040,-0.155,-0.170,-0.145,-0.100,-0.075
0.026,0.010,-0.016,-0.017,0.021,-0.002,-0.040,-0.155,-0.170,-0.145,-0.100,-0.077
0.025,0.010,-0.015,-0.017,0.020,-0.002,-0.039,-0.155,-0.171,-0.145,-0.100,-0.093
0.025,0.010,-0.015,-0.017,0.020,-0.002,-0.042,-0.155,-0.168,-0.145,-0.100,-0.100
0.025,0.010,-0.015,-0.017,0.020,-0.002,-0.045,-0.155,-0.165,-0.145,-0.100,-0.094
0.025,0.010,-0.015,-0.017,0.020,-0.002,-0.045,-0.155,-0.165,-0.145,-0.100,-0.095
0.025,0.010,-0.015,-0.017,0.020,-0.002,-0.045,-0.155,-0.165,-0.149,-0.100,-0.091
0.022,0.010,-0.012,-0.016,0.017,-0.001,-0.045,-0.155,-0.165,-0.150,-0.101,-0.089
0.019,0.010,-0.009,-0.015,0.014,0.000,-0.045,-0.155,-0.165,-0.150,-0.098,-0.091
0.020,0.010,-0.010,-0.015,0.015,0.000,-0.045,-0.155,-0.165,-0.150,-0.095,-0.089
0.020,0.010,-0.010,-0.015,0.015,0.000,-0.045,-0.155,-0.165,-0.150,-0.095,-0.085
0.020,0.010,-0.010,-0.015,0.015,0.000,-0.045,-0.155,-0.165,-0.150,-0.095,-0.085
0.020,0.010,-0.010,-0.015,0.015,0.000,-0.045,-0.155,-0.166,-0.150,-0.096,-0.082
0.018,0.010,-0.008,-0.014,0.013,0.001,-0.045,-0.155,-0.163,-0.150,-0.093,-0.079
0.014,0.010,-0.004,-0.012,0.009,0.003,-0.045,-0.155,-0.160,-0.151,-0.090,-0.080
0.010,0.010,0.000,-0.010,0.005,0.005,-0.045,-0.155,-0.160,-0.155,-0.090,-0.080
0.006,0.010,0.004,-0.008,0.001,0.006,-0.045,-0.155,-0.160,-0.155,-0.090,-0.076
0.005,0.013,0.008,-0.009,-0.002,0.010,-0.042,-0.155,-0.160,-0.155,-0.090,-0.075
0.003,0.016,0.012,-0.010,-0.005,0.014,-0.037,-0.155,-0.160,-0.155,-0.090,-0.073
-0.001,0.015,0.015,-0.008,-0.008,0.015,-0.035,-0.155,-0.159,-0.155,-0.089,-0.069
0.000,0.015,0.015,-0.008,-0.008,0.015,-0.035,-0.155,-0.155,-0.155,-0.085,-0.070
0.003,0.015,0.012,-0.009,-0.005,0.013,-0.031,-0.156,-0.155,-0.155,-0.085,-0.070
0.011,0.015,0.005,-0.013,0.003,0.010,-0.026,-0.150,-0.155,-0.156,-0.085,-0.067
0.002,0.014,0.011,-0.008,-0.005,0.013,-0.026,-0.141,-0.154,-0.150,-0.085,-0.064
-0.010,0.018,0.028,-0.004,-0.020,0.023,-0.022,-0.132,-0.156,-0.137,-0.086,-0.066
-0.010,0.035,0.045,-0.013,-0.028,0.040,-0.005,-0.125,-0.155,-0.125,-0.085,-0.065
-0.035,0.047,0.082,-0.006,-0.059,0.065,0.007,-0.124,-0.135,-0.112,-0.069,-0.053
-0.039,0.062,0.102,-0.012,-0.071,0.082,0.022,-0.090,-0.120,-0.106,-0.055,-0.043
-0.033,0.076,0.109,-0.022,-0.071,0.092,0.035,-0.043,-0.090,-0.088,-0.044,-0.037
-0.018,0.090,0.107,-0.036,-0.063,0.098,0.051,0.003,-0.045,-0.058,-0.033,-0.027
0.025,0.115,0.090,-0.070,-0.033,0.102,0.080,0.080,-0.005,-0.030,-0.020,-0.015
0.059,0.137,0.079,-0.098,-0.010,0.108,0.108,0.204,0.057,0.017,0.008,-0.007
0.081,0.139,0.057,-0.111,0.012,0.098,0.141,0.351,0.131,0.065,0.033,0.000
0.097,0.132,0.035,-0.115,0.031,0.083,0.194,0.447,0.194,0.103,0.060,0.014
0.125,0.129,0.005,-0.127,0.060,0.067,0.227,0.473,0.240,0.141,0.092,0.035
0.170,0.125,-0.045,-0.147,0.107,0.040,0.210,0.475,0.290,0.195,0.125,0.055
0.207,0.119,-0.088,-0.163,0.147,0.015,0.203,0.475,0.375,0.264,0.180,0.089
0.279,0.135,-0.144,-0.207,0.212,-0.004,0.176,0.468,0.441,0.324,0.236,0.138
0.367,0.165,-0.202,-0.266,0.285,-0.018,0.083,0.396,0.490,0.390,0.299,0.193
0.453,0.218,-0.234,-0.336,0.343,-0.008,-0.090,0.214,0.535,0.471,0.383,0.266
0.555,0.305,-0.250,-0.430,0.402,0.027,-0.295,-0.010,0.585,0.565,0.490,0.365
0.671,0.378,-0.292,-0.524,0.481,0.043,-0.451,-0.143,0.677,0.685,0.611,0.465
0.785,0.486,-0.299,-0.635,0.542,0.093,-0.589,-0.296,0.758,0.799,0.724,0.568
0.879,0.611,-0.268,-0.744,0.573,0.171,-0.783,-0.466,0.870,0.948,0.871,0.688
0.980,0.685,-0.295,-0.832,0.637,0.195,-0.997,-0.564,1.004,1.101,1.021,0.797
1.100,0.655,-0.445,-0.877,0.772,0.105,-1.130,-0.575,1.070,1.160,1.075,0.840
1.170,0.535,-0.635,-0.852,0.902,-0.050,-1.220,-0.591,1.025,1.118,1.026,0.826
1.232,0.408,-0.823,-0.819,1.027,-0.207,-1.335,-0.679,0.831,0.972,0.972,0.807
1.214,0.340,-0.874,-0.777,1.044,-0.267,-1.425,-0.816,0.620,0.827,0.925,0.791
1.133,0.312,-0.821,-0.723,0.977,-0.254,-1.427,-0.943,0.469,0.733,0.872,0.778
1.060,0.275,-0.785,-0.667,0.922,-0.255,-1.370,-1.035,0.330,0.650,0.825,0.765
0.909,0.241,-0.668,-0.575,0.788,-0.214,-1.321,-1.108,0.195,0.575,0.778,0.713
0.771,0.218,-0.553,-0.494,0.662,-0.167,-1.237,-1.181,0.040,0.450,0.684,0.669
0.644,0.153,-0.490,-0.398,0.566,-0.168,-1.154,-1.310,-0.181,0.272,0.550,0.594
0.525,0.069,-0.456,-0.296,0.490,-0.194,-1.103,-1.444,-0.408,0.094,0.412,0.484
0.440,0.025,-0.415,-0.232,0.427,-0.195,-1.045,-1.460,-0.530,-0.030,0.295,0.395
0.343,-0.024,-0.367,-0.159,0.355,-0.196,-0.956,-1.366,-0.570,-0.092,0.212,0.330
0.267,-0.053,-0.320,-0.107,0.294,-0.186,-0.849,-1.240,-0.557,-0.150,0.147,0.271
0.231,-0.051,-0.283,-0.090,0.257,-0.167,-0.728,-1.106,-0.538,-0.190,0.083,0.208
0.199,-0.054,-0.252,-0.072,0.226,-0.153,-0.616,-0.965,-0.517,-0.211,0.029,0.153
0.150,-0.075,-0.225,-0.037,0.188,-0.150,-0.535,-0.830,-0.475,-0.230,-0.005,0.110
0.140,-0.068,-0.208,-0.035,0.175,-0.138,-0.458,-0.707,-0.434,-0.219,-0.039,0.065
0.136,-0.058,-0.194,-0.038,0.165,-0.126,-0.395,-0.613,-0.403,-0.208,-0.052,0.035
0.124,-0.051,-0.175,-0.036,0.150,-0.113,-0.347,-0.540,-0.378,-0.199,-0.062,0.014
0.113,-0.043,-0.156,-0.035,0.135,-0.099,-0.286,-0.456,-0.344,-0.188,-0.078,-0.004
0.100,-0.035,-0.135,-0.032,0.118,-0.085,-0.205,-0.360,-0.290,-0.180,-0.085,-0.015
0.066,-0.030,-0.096,-0.017,0.081,-0.063,-0.152,-0.299,-0.239,-0.168,-0.089,-0.027
0.023,-0.030,-0.054,0.003,0.039,-0.042,-0.103,-0.239,-0.218,-0.158,-0.093,-0.036
0.007,-0.028,-0.035,0.011,0.021,-0.032,-0.062,-0.188,-0.211,-0.152,-0.095,-0.045
0.010,-0.024,-0.034,0.008,0.023,-0.029,-0.032,-0.150,-0.203,-0.150,-0.095,-0.058
0.005,-0.025,-0.030,0.010,0.018,-0.027,-0.005,-0.110,-0.195,-0.150,-0.095,-0.070
0.005,-0.025,-0.030,0.010,0.018,-0.027,0.008,-0.078,-0.183,-0.150,-0.095,-0.078
0.006,-0.022,-0.028,0.008,0.017,-0.024,0.018,-0.047,-0.174,-0.147,-0.094,-0.083
0.003,-0.019,-0.022,0.009,0.013,-0.021,0.032,-0.027,-0.166,-0.144,-0.097,-0.087
0.000,-0.020,-0.020,0.010,0.010,-0.020,0.042,-0.018,-0.158,-0.145,-0.100,-0.091
0.000,-0.020,-0.020,0.010,0.010,-0.020,0.050,-0.010,-0.150,-0.145,-0.100,-0.095
0.000,-0.016,-0.016,0.008,0.008,-0.016,0.067,-0.002,-0.146,-0.145,-0.100,-0.096
0.000,-0.014,-0.015,0.008,0.008,-0.014,0.075,0.006,-0.142,-0.142,-0.100,-0.092
0.000,-0.016,-0.015,0.008,0.008,-0.015,0.075,0.014,-0.138,-0.139,-0.100,-0.089
0.001,-0.014,-0.015,0.007,0.008,-0.014,0.075,0.022,-0.134,-0.140,-0.099,-0.090
0.005,-0.010,-0.015,0.003,0.010,-0.012,0.075,0.030,-0.130,-0.140,-0.095,-0.090
0.006,-0.010,-0.015,0.003,0.011,-0.012,0.075,0.038,-0.126,-0.140,-0.095,-0.090
0.001,-0.011,-0.012,0.005,0.007,-0.011,0.078,0.043,-0.122,-0.137,-0.095,-0.090
0.001,-0.008,-0.009,0.003,0.006,-0.009,0.082,0.047,-0.118,-0.134,-0.095,-0.090
0.006,-0.005,-0.010,0.000,0.008,-0.007,0.086,0.051,-0.115,-0.135,-0.095,-0.090
0.005,-0.005,-0.010,0.000,0.008,-0.007,0.090,0.055,-0.115,-0.135,-0.095,-0.090
0.005,-0.005,-0.010,0.000,0.008,-0.007,0.090,0.060,-0.111,-0.131,-0.095,-0.090
0.005,-0.005,-0.010,0.000,0.008,-0.007,0.093,0.059,-0.110,-0.130,-0.095,-0.090
0.005,-0.005,-0.010,0.000,0.008,-0.007,0.096,0.065,-0.109,-0.130,-0.095,-0.090
0.004,-0.005,-0.009,0.000,0.007,-0.007,0.095,0.077,-0.104,-0.130,-0.095,-0.091
0.000,-0.005,-0.005,0.003,0.003,-0.005,0.095,0.080,-0.100,-0.130,-0.095,-0.095
-0.004,-0.009,-0.005,0.007,0.000,-0.006,0.094,0.083,-0.100,-0.126,-0.095,-0.100
-0.008,-0.013,-0.005,0.011,-0.001,-0.009,0.101,0.091,-0.097,-0.125,-0.095,-0.097
-0.012,-0.017,-0.005,0.015,-0.003,-0.011,0.108,0.097,-0.095,-0.125,-0.095,-0.094
-0.015,-0.021,-0.005,0.018,-0.005,-0.012,0.111,0.102,-0.094,-0.125,-0.095,-0.095
-0.015,-0.020,-0.005,0.018,-0.005,-0.012,0.115,0.110,-0.090,-0.125,-0.095,-0.095
-0.015,-0.016,-0.001,0.015,-0.007,-0.008,0.119,0.115,-0.086,-0.121,-0.095,-0.091
-0.016,-0.015,0.000,0.015,-0.007,-0.007,0.120,0.116,-0.082,-0.116,-0.095,-0.089
-0.013,-0.013,0.000,0.013,-0.006,-0.006,0.120,0.128,-0.078,-0.115,-0.095,-0.091
-0.010,-0.010,0.000,0.010,-0.005,-0.005,0.120,0.142,-0.074,-0.114,-0.095,-0.089
-0.010,-0.010,0.000,0.010,-0.005,-0.005,0.120,0.140,-0.070,-0.110,-0.095,-0.085
-0.006,-0.006,0.000,0.006,-0.002,-0.002,0.120,0.138,-0.071,-0.106,-0.095,-0.085
-0.006,-0.005,0.000,0.005,-0.002,-0.002,0.120,0.152,-0.064,-0.105,-0.095,-0.086
-0.002,-0.003,-0.001,0.003,0.000,-0.002,0.120,0.166,-0.057,-0.104,-0.095,-0.083
0.007,0.000,-0.006,-0.003,0.006,-0.003,0.121,0.171,-0.054,-0.099,-0.095,-0.080
0.010,0.000,-0.010,-0.005,0.010,-0.005,0.125,0.175,-0.050,-0.095,-0.095,-0.080
0.014,0.004,-0.010,-0.009,0.011,-0.002,0.124,0.175,-0.046,-0.095,-0.095,-0.080
0.018,0.005,-0.013,-0.011,0.015,-0.004,0.131,0.174,-0.042,-0.092,-0.092,-0.077
0.022,0.007,-0.015,-0.014,0.018,-0.004,0.138,0.180,-0.038,-0.090,-0.087,-0.074
0.026,0.010,-0.015,-0.018,0.021,-0.002,0.141,0.201,-0.033,-0.090,-0.085,-0.075
0.030,0.010,-0.020,-0.020,0.025,-0.005,0.145,0.225,-0.025,-0.085,-0.085,-0.075
0.039,0.014,-0.025,-0.026,0.031,-0.005,0.145,0.234,-0.021,-0.080,-0.081,-0.071
0.040,0.015,-0.025,-0.027,0.032,-0.005,0.148,0.237,-0.014,-0.080,-0.076,-0.069
0.043,0.017,-0.027,-0.030,0.035,-0.005,0.150,0.245,-0.008,-0.078,-0.075,-0.071
0.051,0.020,-0.031,-0.036,0.041,-0.005,0.150,0.258,-0.003,-0.075,-0.074,-0.069
0.050,0.020,-0.030,-0.035,0.040,-0.005,0.155,0.270,0.005,-0.075,-0.070,-0.065
0.046,0.020,-0.026,-0.032,0.036,-0.002,0.159,0.277,0.009,-0.067,-0.070,-0.065
0.045,0.020,-0.025,-0.032,0.035,-0.002,0.161,0.291,0.016,-0.061,-0.067,-0.065
0.043,0.020,-0.023,-0.031,0.033,-0.001,0.173,0.308,0.023,-0.058,-0.065,-0.064
0.040,0.020,-0.020,-0.030,0.030,0.000,0.187,0.324,0.026,-0.054,-0.064,-0.066
0.040,0.020,-0.020,-0.030,0.030,0.000,0.190,0.340,0.030,-0.050,-0.060,-0.075
0.035,0.020,-0.016,-0.027,0.026,0.001,0.193,0.351,0.038,-0.046,-0.060,-0.080
0.037,0.023,-0.014,-0.030,0.026,0.004,0.201,0.373,0.043,-0.043,-0.057,-0.077
0.041,0.026,-0.016,-0.033,0.028,0.005,0.208,0.392,0.047,-0.036,-0.055,-0.075
0.039,0.025,-0.014,-0.031,0.026,0.005,0.210,0.403,0.051,-0.029,-0.054,-0.074
0.035,0.025,-0.010,-0.030,0.022,0.007,0.215,0.425,0.055,-0.025,-0.050,-0.070
0.035,0.025,-0.010,-0.030,0.022,0.007,0.233,0.459,0.070,-0.021,-0.051,-0.070
0.032,0.025,-0.007,-0.028,0.019,0.009,0.230,0.475,0.087,-0.017,-0.044,-0.071
0.030,0.025,-0.005,-0.027,0.017,0.010,0.240,0.490,0.102,-0.013,-0.037,-0.068
0.029,0.025,-0.004,-0.027,0.016,0.010,0.263,0.516,0.111,-0.009,-0.034,-0.065
0.025,0.025,0.000,-0.025,0.012,0.012,0.260,0.535,0.115,-0.005,-0.030,-0.065
0.029,0.029,0.000,-0.029,0.014,0.015,0.258,0.550,0.127,0.003,-0.022,-0.061
0.031,0.030,-0.001,-0.030,0.016,0.015,0.273,0.578,0.139,0.011,-0.016,-0.059
0.030,0.032,0.002,-0.031,0.014,0.017,0.281,0.610,0.153,0.019,-0.013,-0.061
0.030,0.035,0.005,-0.033,0.012,0.020,0.282,0.637,0.168,0.027,-0.008,-0.058
0.030,0.035,0.005,-0.033,0.012,0.020,0.300,0.665,0.175,0.035,0.000,-0.050
0.037,0.046,0.009,-0.041,0.014,0.028,0.312,0.685,0.187,0.043,0.008,-0.046
0.053,0.063,0.010,-0.058,0.022,0.036,0.322,0.705,0.195,0.050,0.013,-0.042
0.062,0.074,0.012,-0.068,0.025,0.043,0.325,0.724,0.208,0.061,0.018,-0.038
0.059,0.074,0.015,-0.067,0.021,0.045,0.335,0.747,0.231,0.072,0.027,-0.034
0.060,0.075,0.015,-0.068,0.022,0.045,0.355,0.775,0.255,0.080,0.035,-0.030
0.076,0.096,0.019,-0.086,0.028,0.057,0.349,0.789,0.275,0.095,0.039,-0.026
0.085,0.105,0.020,-0.095,0.032,0.062,0.367,0.822,0.293,0.114,0.043,-0.019
0.084,0.106,0.022,-0.095,0.030,0.064,0.385,0.850,0.304,0.120,0.047,-0.012
0.087,0.112,0.024,-0.100,0.031,0.068,0.385,0.864,0.304,0.114,0.051,-0.009
0.090,0.115,0.025,-0.103,0.032,0.070,0.390,0.885,0.305,0.115,0.055,-0.005
0.067,0.113,0.046,-0.090,0.010,0.079,0.393,0.901,0.332,0.129,0.057,-0.001
0.080,0.130,0.050,-0.105,0.015,0.089,0.404,0.921,0.357,0.154,0.078,0.003
0.103,0.144,0.042,-0.124,0.030,0.093,0.413,0.936,0.371,0.171,0.097,0.007
0.096,0.145,0.049,-0.121,0.023,0.097,0.416,0.949,0.383,0.176,0.101,0.012
0.080,0.150,0.070,-0.115,0.005,0.110,0.420,0.970,0.395,0.180,0.105,0.020
0.079,0.154,0.075,-0.117,0.002,0.115,0.420,0.982,0.403,0.192,0.109,0.024
0.081,0.156,0.075,-0.119,0.003,0.115,0.420,0.995,0.411,0.202,0.112,0.031
0.093,0.168,0.075,-0.131,0.009,0.121,0.420,1.003,0.420,0.208,0.120,0.036
0.107,0.182,0.075,-0.145,0.016,0.128,0.419,1.006,0.434,0.219,0.134,0.043
0.110,0.185,0.075,-0.148,0.017,0.130,0.415,1.010,0.455,0.235,0.150,0.060
0.113,0.188,0.075,-0.151,0.019,0.131,0.411,1.006,0.472,0.239,0.154,0.065
0.124,0.199,0.075,-0.162,0.024,0.137,0.407,1.005,0.479,0.248,0.159,0.068
0.134,0.209,0.075,-0.172,0.029,0.142,0.403,1.003,0.480,0.262,0.159,0.073
0.134,0.209,0.075,-0.172,0.030,0.141,0.400,1.000,0.489,0.272,0.163,0.075
0.135,0.210,0.075,-0.173,0.030,0.142,0.400,1.000,0.505,0.280,0.180,0.075
0.156,0.231,0.075,-0.194,0.040,0.153,0.396,0.995,0.498,0.285,0.185,0.079
0.159,0.234,0.075,-0.197,0.042,0.154,0.392,0.997,0.491,0.282,0.188,0.083
0.154,0.229,0.075,-0.192,0.039,0.151,0.388,0.987,0.488,0.279,0.192,0.089
0.155,0.230,0.075,-0.193,0.040,0.152,0.384,0.965,0.484,0.280,0.195,0.096
0.155,0.230,0.075,-0.193,0.040,0.152,0.380,0.945,0.480,0.280,0.195,0.100
0.155,0.230,0.075,-0.193,0.040,0.152,0.381,0.924,0.476,0.276,0.191,0.104
0.156,0.231,0.074,-0.194,0.041,0.152,0.369,0.909,0.473,0.274,0.186,0.108
0.150,0.228,0.077,-0.189,0.037,0.152,0.351,0.887,0.465,0.276,0.185,0.112
0.155,0.234,0.080,-0.195,0.037,0.157,0.336,0.859,0.452,0.274,0.184,0.115
0.180,0.255,0.075,-0.218,0.052,0.165,0.320,0.835,0.445,0.270,0.180,0.115
0.177,0.252,0.075,-0.215,0.051,0.163,0.304,0.796,0.437,0.270,0.180,0.111
0.171,0.246,0.075,-0.209,0.048,0.161,0.291,0.753,0.429,0.270,0.177,0.106
0.168,0.243,0.075,-0.206,0.046,0.159,0.279,0.720,0.421,0.271,0.175,0.105
0.164,0.239,0.075,-0.202,0.045,0.156,0.267,0.694,0.414,0.269,0.175,0.104
0.160,0.235,0.075,-0.198,0.042,0.155,0.255,0.665,0.405,0.260,0.170,0.100
0.155,0.231,0.076,-0.194,0.040,0.153,0.248,0.629,0.382,0.252,0.165,0.100
0.158,0.227,0.070,-0.193,0.044,0.148,0.234,0.593,0.356,0.244,0.165,0.098
0.161,0.222,0.061,-0.192,0.049,0.141,0.217,0.557,0.336,0.236,0.163,0.092
0.160,0.213,0.053,-0.187,0.053,0.133,0.201,0.521,0.321,0.228,0.160,0.090
0.160,0.205,0.045,-0.183,0.057,0.125,0.185,0.485,0.305,0.220,0.160,0.090
0.164,0.201,0.037,-0.183,0.063,0.119,0.169,0.449,0.289,0.213,0.156,0.086
0.166,0.195,0.028,-0.181,0.069,0.111,0.153,0.416,0.274,0.199,0.156,0.085
0.161,0.185,0.024,-0.174,0.069,0.104,0.137,0.382,0.253,0.182,0.151,0.082
0.163,0.179,0.017,-0.171,0.073,0.098,0.122,0.346,0.230,0.166,0.136,0.073
0.165,0.175,0.010,-0.170,0.077,0.092,0.110,0.315,0.210,0.150,0.125,0.065
0.123,0.163,0.040,-0.143,0.042,0.101,0.102,0.287,0.190,0.134,0.117,0.057
0.112,0.154,0.042,-0.133,0.035,0.098,0.095,0.258,0.173,0.121,0.107,0.049
0.112,0.144,0.032,-0.129,0.040,0.087,0.084,0.234,0.157,0.109,0.093,0.041
0.104,0.133,0.029,-0.118,0.037,0.080,0.073,0.216,0.141,0.097,0.083,0.033
0.105,0.125,0.020,-0.115,0.042,0.072,0.065,0.195,0.125,0.085,0.075,0.025
0.097,0.113,0.016,-0.105,0.040,0.064,0.057,0.167,0.105,0.073,0.063,0.017
0.095,0.104,0.009,-0.100,0.043,0.056,0.052,0.138,0.088,0.060,0.054,0.008
0.093,0.094,0.001,-0.094,0.045,0.047,0.048,0.112,0.072,0.051,0.044,0.003
0.082,0.083,0.001,-0.082,0.040,0.041,0.044,0.089,0.057,0.042,0.033,-0.002
0.065,0.075,0.010,-0.070,0.027,0.042,0.040,0.070,0.045,0.030,0.025,-0.010
0.044,0.063,0.019,-0.053,0.012,0.041,0.036,0.058,0.033,0.022,0.013,-0.018
0.036,0.054,0.018,-0.045,0.009,0.035,0.032,0.046,0.021,0.011,0.004,-0.024
0.032,0.046,0.014,-0.039,0.009,0.029,0.028,0.036,0.009,0.000,-0.004,-0.024
0.023,0.039,0.015,-0.031,0.004,0.027,0.024,0.028,-0.002,-0.007,-0.011,-0.028
0.020,0.035,0.015,-0.028,0.002,0.025,0.020,0.015,-0.010,-0.015,-0.015,-0.045
0.020,0.031,0.011,-0.026,0.005,0.021,0.020,0.002,-0.018,-0.023,-0.019,-0.046
0.018,0.027,0.009,-0.022,0.004,0.018,0.020,-0.006,-0.029,-0.028,-0.026,-0.045
0.012,0.023,0.011,-0.018,0.001,0.016,0.020,-0.016,-0.039,-0.033,-0.032,-0.045
0.010,0.019,0.009,-0.015,0.000,0.014,0.020,-0.028,-0.047,-0.042,-0.036,-0.045
0.010,0.015,0.005,-0.013,0.002,0.010,0.020,-0.035,-0.055,-0.050,-0.040,-0.045
0.006,0.011,0.005,-0.009,0.000,0.007,0.020,-0.039,-0.052,-0.054,-0.040,-0.045
0.005,0.010,0.006,-0.008,0.000,0.007,0.021,-0.043,-0.047,-0.058,-0.038,-0.044
0.005,0.008,0.003,-0.007,0.001,0.005,0.018,-0.048,-0.057,-0.062,-0.045,-0.050
0.005,0.004,0.000,-0.005,0.002,0.002,0.015,-0.050,-0.073,-0.066,-0.057,-0.062
0.005,0.005,0.000,-0.005,0.002,0.002,0.015,-0.050,-0.075,-0.070,-0.060,-0.065
0.005,0.005,0.000,-0.005,0.002,0.002,0.015,-0.058,-0.075,-0.070,-0.060,-0.065
0.005,0.002,-0.003,-0.003,0.004,0.000,0.015,-0.064,-0.075,-0.073,-0.059,-0.065
0.005,-0.001,-0.006,-0.002,0.005,-0.003,0.015,-0.065,-0.075,-0.075,-0.062,-0.065
0.005,0.000,-0.005,-0.002,0.005,-0.002,0.015,-0.065,-0.075,-0.076,-0.065,-0.065
0.005,0.000,-0.005,-0.002,0.005,-0.002,0.015,-0.065,-0.075,-0.080,-0.065,-0.065
0.005,-0.004,-0.009,0.000,0.008,-0.006,0.015,-0.065,-0.075,-0.081,-0.065,-0.069
0.005,-0.006,-0.011,0.000,0.008,-0.008,0.012,-0.065,-0.078,-0.077,-0.068,-0.070
0.005,-0.004,-0.010,0.000,0.008,-0.006,0.009,-0.065,-0.081,-0.075,-0.071,-0.070
0.005,-0.006,-0.011,0.001,0.008,-0.008,0.010,-0.065,-0.080,-0.075,-0.070,-0.070
0.005,-0.010,-0.015,0.003,0.010,-0.012,0.010,-0.065,-0.080,-0.075,-0.070,-0.070
0.009,-0.010,-0.019,0.000,0.014,-0.014,0.010,-0.065,-0.084,-0.075,-0.070,-0.070
0.010,-0.013,-0.023,0.002,0.017,-0.018,0.010,-0.065,-0.085,-0.075,-0.070,-0.073
0.010,-0.016,-0.026,0.003,0.019,-0.021,0.010,-0.065,-0.085,-0.075,-0.070,-0.076
0.009,-0.015,-0.024,0.003,0.017,-0.019,0.010,-0.065,-0.084,-0.075,-0.070,-0.075
0.005,-0.015,-0.020,0.005,0.013,-0.017,0.010,-0.065,-0.080,-0.075,-0.070,-0.075
0.001,-0.019,-0.020,0.009,0.010,-0.019,0.010,-0.065,-0.080,-0.071,-0.070,-0.075
0.000,-0.021,-0.020,0.011,0.010,-0.020,0.007,-0.065,-0.080,-0.070,-0.070,-0.075
0.001,-0.019,-0.020,0.009,0.010,-0.020,0.004,-0.065,-0.080,-0.070,-0.070,-0.075
-0.001,-0.021,-0.020,0.011,0.010,-0.020,0.005,-0.065,-0.080,-0.070,-0.070,-0.076
-0.005,-0.025,-0.020,0.015,0.008,-0.022,0.005,-0.065,-0.080,-0.070,-0.070,-0.080
-0.005,-0.025,-0.020,0.015,0.008,-0.022,0.005,-0.065,-0.080,-0.070,-0.070,-0.080
-0.009,-0.025,-0.017,0.017,0.005,-0.021,0.005,-0.065,-0.080,-0.070,-0.070,-0.080
-0.009,-0.023,-0.014,0.016,0.003,-0.019,0.005,-0.065,-0.080,-0.070,-0.070,-0.079
-0.004,-0.020,-0.015,0.012,0.005,-0.017,0.005,-0.065,-0.080,-0.069,-0.071,-0.081
-0.005,-0.020,-0.015,0.013,0.005,-0.017,0.005,-0.065,-0.080,-0.065,-0.075,-0.090
-0.005,-0.020,-0.015,0.013,0.005,-0.017,0.001,-0.065,-0.080,-0.065,-0.080,-0.095
-0.004,-0.020,-0.016,0.013,0.006,-0.017,0.000,-0.065,-0.081,-0.065,-0.077,-0.092
-0.007,-0.020,-0.013,0.014,0.003,-0.016,0.000,-0.065,-0.078,-0.065,-0.074,-0.089
-0.010,-0.020,-0.010,0.015,0.000,-0.015,0.000,-0.065,-0.075,-0.065,-0.075,-0.090
-0.010,-0.020,-0.010,0.015,0.000,-0.015,0.000,-0.065,-0.075,-0.065,-0.075,-0.090
-0.010,-0.020,-0.010,0.015,0.000,-0.015,0.000,-0.061,-0.075,-0.065,-0.075,-0.090
-0.007,-0.017,-0.010,0.012,0.002,-0.013,0.000,-0.060,-0.075,-0.065,-0.075,-0.090
-0.005,-0.014,-0.010,0.010,0.003,-0.012,0.000,-0.060,-0.075,-0.065,-0.075,-0.090
-0.005,-0.015,-0.010,0.010,0.003,-0.012,-0.001,-0.060,-0.075,-0.066,-0.075,-0.090
-0.005,-0.015,-0.010,0.010,0.003,-0.012,-0.005,-0.060,-0.075,-0.070,-0.075,-0.090
-0.009,-0.015,-0.006,0.012,-0.001,-0.010,-0.005,-0.060,-0.075,-0.074,-0.075,-0.086
-0.010,-0.015,-0.005,0.013,-0.002,-0.010,-0.005,-0.060,-0.075,-0.078,-0.075,-0.085
-0.010,-0.015,-0.005,0.013,-0.002,-0.010,-0.005,-0.060,-0.075,-0.080,-0.075,-0.085
-0.010,-0.015,-0.005,0.013,-0.002,-0.010,-0.005,-0.060,-0.075,-0.080,-0.075,-0.085
-0.010,-0.015,-0.005,0.013,-0.002,-0.010,-0.005,-0.060,-0.075,-0.080,-0.075,-0.085
-0.005,-0.011,-0.005,0.009,0.000,-0.008,-0.005,-0.060,-0.075,-0.080,-0.071,-0.085
-0.008,-0.010,-0.002,0.009,-0.003,-0.006,-0.005,-0.057,-0.078,-0.079,-0.070,-0.085
-0.011,-0.010,0.001,0.010,-0.006,-0.005,-0.005,-0.054,-0.080,-0.082,-0.070,-0.085
-0.010,-0.010,0.000,0.010,-0.005,-0.005,-0.005,-0.055,-0.081,-0.085,-0.070,-0.084
-0.010,-0.010,0.000,0.010,-0.005,-0.005,-0.005,-0.055,-0.085,-0.085,-0.070,-0.080
-0.010,-0.010,0.000,0.010,-0.005,-0.005,-0.005,-0.055,-0.085,-0.085,-0.070,-0.080
-0.011,-0.010,0.001,0.010,-0.006,-0.005,-0.005,-0.055,-0.088,-0.085,-0.070,-0.080
-0.008,-0.010,-0.002,0.009,-0.003,-0.006,-0.005,-0.055,-0.090,-0.085,-0.070,-0.080
-0.013,-0.010,0.004,0.012,-0.008,-0.003,-0.005,-0.055,-0.091,-0.084,-0.070,-0.080
-0.030,-0.010,0.020,0.020,-0.025,0.005,-0.005,-0.055,-0.095,-0.080,-0.070,-0.080
-0.031,-0.014,0.017,0.022,-0.023,0.001,-0.005,-0.055,-0.095,-0.080,-0.070,-0.080
-0.029,-0.015,0.014,0.021,-0.021,0.000,-0.005,-0.054,-0.095,-0.080,-0.070,-0.080
-0.032,-0.017,0.015,0.024,-0.023,-0.001,-0.005,-0.058,-0.095,-0.080,-0.070,-0.080
-0.035,-0.020,0.015,0.027,-0.025,-0.002,-0.005,-0.067,-0.095,-0.080,-0.070,-0.081
-0.035,-0.020,0.015,0.027,-0.025,-0.002,-0.005,-0.070,-0.095,-0.080,-0.070,-0.085
-0.039,-0.024,0.015,0.031,-0.027,-0.004,-0.005,-0.074,-0.095,-0.080,-0.070,-0.085
-0.038,-0.026,0.012,0.032,-0.024,-0.007,-0.005,-0.078,-0.095,-0.080,-0.070,-0.085
-0.032,-0.023,0.009,0.028,-0.021,-0.006,-0.005,-0.080,-0.095,-0.080,-0.070,-0.085
-0.030,-0.020,0.010,0.025,-0.020,-0.005,-0.005,-0.080,-0.095,-0.080,-0.070,-0.085
-0.030,-0.020,0.010,0.025,-0.020,-0.005,-0.005,-0.080,-0.095,-0.080,-0.070,-0.085
-0.030,-0.020,0.010,0.025,-0.020,-0.005,-0.005,-0.080,-0.095,-0.080,-0.068,-0.085
-0.030,-0.020,0.010,0.025,-0.020,-0.005,-0.008,-0.080,-0.095,-0.080,-0.082,-0.085
-0.030,-0.020,0.010,0.025,-0.020,-0.005,-0.011,-0.080,-0.095,-0.080,-0.094,-0.085
-0.029,-0.020,0.009,0.025,-0.019,-0.005,-0.010,-0.081,-0.095,-0.080,-0.095,-0.085
-0.025,-0.020,0.005,0.022,-0.015,-0.007,-0.010,-0.085,-0.095,-0.080,-0.095,-0.085
-0.025,-0.020,0.005,0.022,-0.015,-0.007,-0.010,-0.090,-0.095,-0.080,-0.095,-0.085
-0.025,-0.020,0.005,0.022,-0.015,-0.007,-0.013,-0.087,-0.095,-0.080,-0.095,-0.085
-0.025,-0.020,0.005,0.022,-0.015,-0.007,-0.016,-0.084,-0.095,-0.080,-0.095,-0.085
-0.025,-0.020,0.005,0.022,-0.015,-0.007,-0.015,-0.085,-0.095,-0.080,-0.095,-0.085
-0.025,-0.020,0.005,0.022,-0.015,-0.007,-0.015,-0.085,-0.095,-0.080,-0.095,-0.085
-0.021,-0.020,0.001,0.021,-0.011,-0.010,-0.015,-0.085,-0.095,-0.080,-0.095,-0.085
-0.016,-0.017,0.000,0.017,-0.008,-0.008,-0.014,-0.085,-0.095,-0.080,-0.098,-0.085
-0.015,-0.014,0.000,0.015,-0.007,-0.007,-0.017,-0.084,-0.095,-0.080,-0.101,-0.085
-0.015,-0.015,0.000,0.015,-0.007,-0.007,-0.020,-0.086,-0.095,-0.080,-0.100,-0.085
-0.015,-0.015,0.000,0.015,-0.007,-0.007,-0.020,-0.095,-0.095,-0.080,-0.100,-0.085
-0.015,-0.015,0.000,0.015,-0.007,-0.007,-0.020,-0.099,-0.095,-0.080,-0.100,-0.085
-0.014,-0.015,-0.001,0.015,-0.006,-0.007,-0.019,-0.103,-0.098,-0.083,-0.100,-0.085
-0.018,-0.015,0.003,0.017,-0.010,-0.005,-0.022,-0.105,-0.101,-0.085,-0.100,-0.085
-0.027,-0.015,0.012,0.021,-0.019,-0.001,-0.025,-0.105,-0.100,-0.086,-0.100,-0.085
-0.030,-0.015,0.015,0.022,-0.022,0.000,-0.025,-0.105,-0.100,-0.090,-0.100,-0.085
-0.026,-0.015,0.011,0.020,-0.018,-0.002,-0.025,-0.105,-0.100,-0.090,-0.104,-0.085
-0.024,-0.015,0.010,0.020,-0.016,-0.002,-0.025,-0.108,-0.103,-0.093,-0.105,-0.088
-0.025,-0.015,0.010,0.020,-0.017,-0.002,-0.025,-0.111,-0.107,-0.095,-0.105,-0.092
-0.024,-0.014,0.010,0.019,-0.017,-0.001,-0.026,-0.110,-0.110,-0.096,-0.105,-0.095
-0.025,-0.015,0.010,0.020,-0.017,-0.002,-0.030,-0.110,-0.110,-0.100,-0.105,-0.095
-0.037,-0.031,0.006,0.034,-0.021,-0.013,-0.030,-0.110,-0.110,-0.100,-0.105,-0.095
-0.044,-0.040,0.005,0.042,-0.024,-0.017,-0.030,-0.113,-0.113,-0.100,-0.105,-0.095
-0.045,-0.040,0.005,0.042,-0.025,-0.017,-0.030,-0.116,-0.116,-0.100,-0.105,-0.095
-0.045,-0.040,0.005,0.042,-0.025,-0.017,-0.030,-0.115,-0.114,-0.100,-0.105,-0.095
-0.045,-0.040,0.005,0.042,-0.025,-0.017,-0.030,-0.115,-0.115,-0.100,-0.105,-0.095
-0.041,-0.040,0.001,0.040,-0.021,-0.020,-0.030,-0.115,-0.132,-0.100,-0.101,-0.095
-0.040,-0.040,0.000,0.040,-0.020,-0.020,-0.030,-0.118,-0.134,-0.100,-0.100,-0.095
-0.040,-0.040,0.000,0.040,-0.020,-0.020,-0.030,-0.121,-0.129,-0.100,-0.100,-0.095
-0.040,-0.040,0.000,0.040,-0.020,-0.020,-0.030,-0.120,-0.130,-0.100,-0.100,-0.095
-0.040,-0.040,0.000,0.040,-0.020,-0.020,-0.030,-0.120,-0.130,-0.100,-0.100,-0.095
-0.040,-0.040,0.000,0.040,-0.020,-0.020,-0.030,-0.120,-0.130,-0.100,-0.100,-0.095
-0.037,-0.040,-0.003,0.039,-0.017,-0.021,-0.029,-0.119,-0.130,-0.099,-0.100,-0.095
-0.034,-0.040,-0.006,0.038,-0.014,-0.022,-0.032,-0.122,-0.130,-0.102,-0.100,-0.095
-0.035,-0.040,-0.005,0.038,-0.015,-0.022,-0.035,-0.125,-0.130,-0.105,-0.100,-0.095
-0.035,-0.040,-0.005,0.038,-0.015,-0.022,-0.035,-0.125,-0.130,-0.105,-0.100,-0.095
-0.035,-0.040,-0.005,0.038,-0.015,-0.022,-0.035,-0.125,-0.126,-0.105,-0.100,-0.095
-0.032,-0.040,-0.008,0.036,-0.012,-0.024,-0.035,-0.125,-0.125,-0.105,-0.100,-0.095
-0.029,-0.040,-0.011,0.035,-0.009,-0.025,-0.035,-0.125,-0.125,-0.105,-0.100,-0.095
-0.030,-0.040,-0.010,0.035,-0.010,-0.025,-0.035,-0.125,-0.125,-0.105,-0.100,-0.095
-0.030,-0.040,-0.010,0.035,-0.010,-0.025,-0.035,-0.125,-0.125,-0.105,-0.100,-0.095
-0.030,-0.040,-0.010,0.035,-0.010,-0.025,-0.035,-0.125,-0.125,-0.105,-0.100,-0.094
-0.030,-0.040,-0.010,0.035,-0.010,-0.025,-0.035,-0.125,-0.125,-0.105,-0.100,-0.102
-0.030,-0.040,-0.010,0.035,-0.010,-0.025,-0.035,-0.125,-0.125,-0.105,-0.100,-0.104
-0.030,-0.040,-0.010,0.035,-0.010,-0.025,-0.035,-0.125,-0.124,-0.105,-0.100,-0.099
-0.030,-0.040,-0.010,0.035,-0.010,-0.025,-0.035,-0.125,-0.120,-0.105,-0.100,-0.100
-0.030,-0.040,-0.010,0.035,-0.010,-0.025,-0.035,-0.125,-0.120,-0.105,-0.100,-0.100
-0.030,-0.040,-0.010,0.035,-0.010,-0.025,-0.032,-0.125,-0.120,-0.108,-0.100,-0.100
-0.030,-0.040,-0.010,0.035,-0.010,-0.025,-0.029,-0.125,-0.120,-0.111,-0.100,-0.100
-0.031,-0.041,-0.010,0.036,-0.010,-0.025,-0.030,-0.125,-0.120,-0.110,-0.100,-0.100
-0.035,-0.045,-0.010,0.040,-0.012,-0.027,-0.030,-0.125,-0.120,-0.110,-0.100,-0.100
-0.035,-0.045,-0.010,0.040,-0.012,-0.027,-0.030,-0.125,-0.120,-0.110,-0.100,-0.100
-0.035,-0.045,-0.010,0.040,-0.012,-0.027,-0.030,-0.125,-0.120,-0.110,-0.099,-0.097
-0.035,-0.045,-0.010,0.040,-0.012,-0.027,-0.030,-0.125,-0.120,-0.110,-0.102,-0.094
-0.035,-0.045,-0.010,0.040,-0.012,-0.027,-0.030,-0.125,-0.119,-0.110,-0.105,-0.095
-0.035,-0.045,-0.010,0.040,-0.012,-0.027,-0.030,-0.125,-0.115,-0.110,-0.105,-0.095
-0.031,-0.045,-0.014,0.038,-0.008,-0.030,-0.026,-0.125,-0.115,-0.110,-0.105,-0.095
-0.030,-0.044,-0.015,0.038,-0.007,-0.030,-0.025,-0.125,-0.115,-0.110,-0.105,-0.095
-0.030,-0.047,-0.017,0.039,-0.006,-0.032,-0.025,-0.125,-0.115,-0.110,-0.105,-0.095
-0.030,-0.050,-0.021,0.040,-0.005,-0.035,-0.025,-0.125,-0.115,-0.110,-0.105,-0.095
-0.030,-0.050,-0.020,0.040,-0.005,-0.035,-0.025,-0.125,-0.115,-0.110,-0.105,-0.095
-0.030,-0.050,-0.019,0.040,-0.005,-0.035,-0.025,-0.125,-0.115,-0.114,-0.105,-0.091
-0.027,-0.050,-0.023,0.039,-0.002,-0.036,-0.025,-0.125,-0.116,-0.115,-0.108,-0.090
-0.025,-0.050,-0.025,0.038,0.000,-0.037,-0.025,-0.125,-0.113,-0.115,-0.111,-0.090
-0.024,-0.050,-0.026,0.038,0.001,-0.037,-0.024,-0.125,-0.110,-0.115,-0.110,-0.090
-0.020,-0.050,-0.030,0.035,0.005,-0.040,-0.020,-0.125,-0.110,-0.115,-0.110,-0.090
-0.019,-0.050,-0.030,0.034,0.005,-0.040,-0.020,-0.125,-0.110,-0.115,-0.110,-0.090
-0.023,-0.053,-0.029,0.038,0.003,-0.041,-0.020,-0.128,-0.110,-0.115,-0.110,-0.090
-0.025,-0.057,-0.032,0.041,0.004,-0.044,-0.020,-0.131,-0.110,-0.115,-0.110,-0.090
-0.026,-0.061,-0.035,0.044,0.005,-0.048,-0.020,-0.130,-0.110,-0.115,-0.110,-0.090
-0.030,-0.065,-0.035,0.048,0.003,-0.050,-0.020,-0.130,-0.110,-0.115,-0.110,-0.090
-0.026,-0.065,-0.039,0.045,0.007,-0.051,-0.020,-0.130,-0.110,-0.115,-0.114,-0.098
-0.027,-0.068,-0.041,0.048,0.007,-0.054,-0.020,-0.130,-0.107,-0.115,-0.115,-0.104
-0.032,-0.071,-0.039,0.051,0.004,-0.055,-0.020,-0.130,-0.104,-0.115,-0.115,-0.105
-0.028,-0.069,-0.041,0.049,0.006,-0.055,-0.020,-0.130,-0.105,-0.116,-0.115,-0.105
-0.020,-0.065,-0.045,0.043,0.013,-0.055,-0.020,-0.130,-0.105,-0.120,-0.115,-0.105
-0.020,-0.065,-0.045,0.043,0.013,-0.055,-0.020,-0.130,-0.105,-0.120,-0.115,-0.105
-0.020,-0.065,-0.045,0.043,0.013,-0.055,-0.020,-0.130,-0.105,-0.120,-0.115,-0.105
-0.022,-0.065,-0.043,0.044,0.011,-0.054,-0.020,-0.130,-0.105,-0.120,-0.115,-0.105
-0.026,-0.065,-0.040,0.045,0.007,-0.052,-0.020,-0.130,-0.105,-0.120,-0.115,-0.105
-0.025,-0.065,-0.040,0.045,0.008,-0.052,-0.020,-0.130,-0.105,-0.120,-0.115,-0.105
-0.024,-0.065,-0.040,0.045,0.009,-0.052,-0.020,-0.130,-0.105,-0.120,-0.115,-0.105
-0.029,-0.066,-0.037,0.047,0.005,-0.051,-0.020,-0.130,-0.108,-0.120,-0.115,-0.104
-0.029,-0.063,-0.035,0.046,0.003,-0.049,-0.020,-0.130,-0.110,-0.120,-0.115,-0.107
-0.025,-0.060,-0.035,0.043,0.005,-0.047,-0.020,-0.130,-0.111,-0.120,-0.115,-0.110
-0.025,-0.060,-0.035,0.043,0.005,-0.047,-0.020,-0.130,-0.115,-0.120,-0.115,-0.110
-0.025,-0.060,-0.035,0.043,0.005,-0.047,-0.020,-0.130,-0.115,-0.120,-0.115,-0.110
-0.028,-0.060,-0.032,0.044,0.002,-0.046,-0.020,-0.130,-0.119,-0.120,-0.115,-0.110
-0.031,-0.060,-0.029,0.045,-0.001,-0.045,-0.020,-0.130,-0.119,-0.120,-0.115,-0.110
-0.030,-0.060,-0.030,0.045,0.000,-0.045,-0.020,-0.130,-0.114,-0.120,-0.115,-0.110
-0.030,-0.060,-0.030,0.045,0.000,-0.045,-0.020,-0.130,-0.115,-0.120,-0.115,-0.110
-0.030,-0.060,-0.030,0.045,0.000,-0.045,-0.020,-0.130,-0.115,-0.120,-0.115,-0.110
-0.030,-0.057,-0.027,0.044,-0.001,-0.042,-0.020,-0.130,-0.116,-0.120,-0.115,-0.110
-0.030,-0.054,-0.024,0.043,-0.002,-0.039,-0.020,-0.130,-0.113,-0.120,-0.115,-0.110
-0.030,-0.055,-0.025,0.043,-0.002,-0.040,-0.020,-0.129,-0.110,-0.120,-0.115,-0.109
-0.030,-0.055,-0.025,0.043,-0.002,-0.040,-0.020,-0.125,-0.110,-0.120,-0.115,-0.105
-0.034,-0.055,-0.021,0.045,-0.006,-0.037,-0.019,-0.125,-0.110,-0.120,-0.115,-0.105
-0.035,-0.055,-0.020,0.045,-0.007,-0.037,-0.025,-0.125,-0.111,-0.120,-0.115,-0.105
-0.035,-0.055,-0.020,0.045,-0.007,-0.037,-0.033,-0.125,-0.108,-0.120,-0.115,-0.105
-0.035,-0.055,-0.020,0.045,-0.007,-0.037,-0.034,-0.125,-0.105,-0.120,-0.115,-0.104
-0.035,-0.055,-0.020,0.045,-0.007,-0.037,-0.030,-0.125,-0.105,-0.120,-0.115,-0.100
-0.039,-0.055,-0.016,0.047,-0.011,-0.035,-0.030,-0.125,-0.105,-0.120,-0.115,-0.100
-0.044,-0.058,-0.015,0.051,-0.014,-0.036,-0.030,-0.125,-0.105,-0.117,-0.115,-0.100
-0.045,-0.061,-0.015,0.053,-0.015,-0.037,-0.030,-0.125,-0.105,-0.115,-0.115,-0.100
-0.045,-0.060,-0.015,0.053,-0.015,-0.037,-0.030,-0.125,-0.104,-0.114,-0.115,-0.099
-0.045,-0.060,-0.015,0.053,-0.015,-0.037,-0.030,-0.125,-0.100,-0.110,-0.115,-0.095
-0.037,-0.060,-0.023,0.049,-0.007,-0.041,-0.030,-0.125,-0.100,-0.110,-0.115,-0.095
-0.029,-0.060,-0.031,0.045,0.001,-0.045,-0.030,-0.125,-0.100,-0.111,-0.116,-0.095
-0.021,-0.060,-0.039,0.041,0.009,-0.049,-0.030,-0.125,-0.100,-0.108,-0.113,-0.095
-0.014,-0.061,-0.047,0.038,0.017,-0.053,-0.030,-0.125,-0.099,-0.105,-0.110,-0.095
-0.010,-0.065,-0.055,0.038,0.023,-0.060,-0.030,-0.125,-0.095,-0.105,-0.110,-0.095
-0.009,-0.069,-0.060,0.039,0.025,-0.064,-0.030,-0.125,-0.095,-0.105,-0.106,-0.091
-0.013,-0.073,-0.060,0.043,0.023,-0.066,-0.030,-0.125,-0.095,-0.102,-0.105,-0.090
-0.014,-0.076,-0.062,0.045,0.024,-0.069,-0.030,-0.125,-0.095,-0.099,-0.103,-0.090
-0.008,-0.073,-0.065,0.041,0.029,-0.069,-0.030,-0.125,-0.095,-0.100,-0.100,-0.090
0.000,-0.065,-0.065,0.033,0.033,-0.065,-0.030,-0.125,-0.095,-0.100,-0.100,-0.090
0.008,-0.061,-0.069,0.027,0.038,-0.065,-0.031,-0.126,-0.091,-0.096,-0.096,-0.086
0.018,-0.054,-0.072,0.018,0.045,-0.063,-0.025,-0.117,-0.089,-0.094,-0.095,-0.085
0.017,-0.048,-0.065,0.016,0.041,-0.057,-0.016,-0.105,-0.091,-0.096,-0.093,-0.085
0.008,-0.043,-0.052,0.018,0.031,-0.047,-0.008,-0.098,-0.089,-0.094,-0.090,-0.085
0.005,-0.035,-0.040,0.015,0.023,-0.037,0.000,-0.090,-0.085,-0.090,-0.090,-0.085
-0.002,-0.030,-0.028,0.017,0.013,-0.029,0.008,-0.082,-0.085,-0.090,-0.086,-0.085
-0.015,-0.030,-0.015,0.022,0.000,-0.022,0.016,-0.074,-0.085,-0.087,-0.085,-0.082
-0.023,-0.030,-0.007,0.027,-0.008,-0.018,0.024,-0.066,-0.085,-0.084,-0.085,-0.079
-0.025,-0.030,-0.005,0.028,-0.010,-0.017,0.031,-0.058,-0.084,-0.085,-0.085,-0.080
-0.025,-0.030,-0.005,0.028,-0.010,-0.017,0.035,-0.055,-0.080,-0.085,-0.085,-0.080
-0.025,-0.030,-0.005,0.028,-0.010,-0.017,0.039,-0.055,-0.080,-0.081,-0.085,-0.080
-0.025,-0.030,-0.005,0.028,-0.010,-0.017,0.040,-0.052,-0.081,-0.080,-0.085,-0.081
-0.025,-0.030,-0.005,0.028,-0.010,-0.017,0.040,-0.049,-0.078,-0.078,-0.085,-0.078
-0.025,-0.030,-0.005,0.028,-0.010,-0.017,0.040,-0.050,-0.075,-0.075,-0.085,-0.075
-0.025,-0.030,-0.005,0.028,-0.010,-0.017,0.040,-0.050,-0.075,-0.075,-0.085,-0.075
-0.025,-0.030,-0.005,0.028,-0.010,-0.017,0.040,-0.046,-0.075,-0.075,-0.085,-0.075
-0.025,-0.030,-0.005,0.028,-0.010,-0.017,0.039,-0.044,-0.074,-0.078,-0.084,-0.075
-0.025,-0.030,-0.005,0.028,-0.010,-0.017,0.043,-0.046,-0.077,-0.081,-0.087,-0.075
-0.025,-0.029,-0.005,0.027,-0.010,-0.016,0.052,-0.044,-0.080,-0.080,-0.090,-0.075
-0.020,-0.025,-0.005,0.023,-0.007,-0.015,0.055,-0.040,-0.080,-0.080,-0.090,-0.075
-0.012,-0.025,-0.013,0.019,0.001,-0.019,0.047,-0.040,-0.080,-0.080,-0.090,-0.071
-0.004,-0.022,-0.018,0.013,0.007,-0.020,0.041,-0.041,-0.080,-0.080,-0.090,-0.070
0.005,-0.019,-0.024,0.007,0.014,-0.022,0.039,-0.038,-0.080,-0.080,-0.090,-0.070
0.011,-0.020,-0.031,0.005,0.021,-0.026,0.033,-0.035,-0.080,-0.080,-0.090,-0.070
0.015,-0.020,-0.035,0.003,0.025,-0.027,0.025,-0.035,-0.080,-0.080,-0.090,-0.070
0.028,-0.016,-0.043,-0.005,0.036,-0.029,0.021,-0.034,-0.080,-0.080,-0.090,-0.070
0.033,-0.015,-0.048,-0.009,0.041,-0.031,0.018,-0.045,-0.083,-0.079,-0.093,-0.067
0.041,-0.013,-0.054,-0.014,0.048,-0.033,0.009,-0.065,-0.086,-0.082,-0.096,-0.064
0.052,-0.010,-0.061,-0.021,0.056,-0.035,-0.002,-0.076,-0.085,-0.085,-0.095,-0.065
0.055,-0.010,-0.065,-0.022,0.060,-0.037,-0.010,-0.080,-0.085,-0.085,-0.095,-0.065
0.064,-0.009,-0.073,-0.027,0.068,-0.041,-0.022,-0.095,-0.085,-0.085,-0.095,-0.065
0.064,-0.016,-0.079,-0.024,0.072,-0.047,-0.031,-0.114,-0.085,-0.085,-0.095,-0.065
0.056,-0.023,-0.078,-0.016,0.067,-0.051,-0.041,-0.123,-0.085,-0.085,-0.095,-0.064
0.049,-0.026,-0.075,-0.011,0.062,-0.050,-0.052,-0.125,-0.084,-0.085,-0.095,-0.066
0.045,-0.030,-0.075,-0.007,0.060,-0.052,-0.060,-0.125,-0.085,-0.085,-0.095,-0.075
0.037,-0.034,-0.071,-0.001,0.054,-0.052,-0.077,-0.125,-0.101,-0.085,-0.099,-0.079
0.032,-0.039,-0.070,0.003,0.051,-0.054,-0.079,-0.128,-0.110,-0.085,-0.100,-0.083
0.028,-0.040,-0.068,0.006,0.048,-0.054,-0.074,-0.131,-0.110,-0.085,-0.100,-0.085
0.024,-0.041,-0.065,0.009,0.044,-0.052,-0.075,-0.130,-0.110,-0.086,-0.100,-0.085
0.020,-0.045,-0.065,0.013,0.043,-0.055,-0.075,-0.130,-0.110,-0.090,-0.100,-0.085
0.016,-0.045,-0.061,0.014,0.039,-0.052,-0.071,-0.134,-0.110,-0.090,-0.100,-0.085
0.012,-0.048,-0.060,0.018,0.036,-0.054,-0.070,-0.138,-0.110,-0.093,-0.100,-0.085
0.008,-0.050,-0.058,0.021,0.033,-0.054,-0.070,-0.142,-0.109,-0.095,-0.100,-0.084
0.003,-0.051,-0.055,0.024,0.029,-0.052,-0.070,-0.146,-0.111,-0.096,-0.100,-0.087
-0.005,-0.060,-0.055,0.033,0.025,-0.057,-0.070,-0.150,-0.120,-0.100,-0.100,-0.100
-0.014,-0.065,-0.051,0.040,0.019,-0.058,-0.066,-0.150,-0.128,-0.104,-0.104,-0.105
-0.015,-0.062,-0.046,0.039,0.016,-0.054,-0.065,-0.150,-0.133,-0.109,-0.108,-0.104
-0.032,-0.077,-0.045,0.055,0.007,-0.061,-0.065,-0.150,-0.137,-0.110,-0.112,-0.108
-0.052,-0.097,-0.044,0.075,-0.004,-0.071,-0.065,-0.151,-0.140,-0.111,-0.115,-0.116
-0.050,-0.090,-0.040,0.070,-0.005,-0.065,-0.065,-0.155,-0.140,-0.115,-0.115,-0.120
-0.054,-0.089,-0.036,0.072,-0.009,-0.062,-0.061,-0.155,-0.140,-0.115,-0.119,-0.124
-0.058,-0.091,-0.034,0.075,-0.012,-0.062,-0.059,-0.155,-0.143,-0.118,-0.123,-0.125
-0.064,-0.103,-0.038,0.084,-0.012,-0.071,-0.061,-0.155,-0.145,-0.120,-0.129,-0.125
-0.070,-0.117,-0.047,0.094,-0.011,-0.082,-0.059,-0.155,-0.145,-0.121,-0.137,-0.125
-0.070,-0.120,-0.050,0.095,-0.010,-0.085,-0.055,-0.155,-0.145,-0.125,-0.140,-0.125
-0.072,-0.120,-0.048,0.096,-0.012,-0.084,-0.055,-0.155,-0.143,-0.129,-0.136,-0.129
-0.054,-0.120,-0.066,0.087,0.006,-0.093,-0.055,-0.152,-0.158,-0.133,-0.135,-0.130
-0.046,-0.120,-0.074,0.084,0.014,-0.097,-0.055,-0.149,-0.165,-0.135,-0.135,-0.130
-0.057,-0.120,-0.063,0.089,0.003,-0.091,-0.054,-0.150,-0.159,-0.135,-0.135,-0.130
-0.060,-0.120,-0.060,0.090,0.000,-0.090,-0.050,-0.150,-0.160,-0.135,-0.135,-0.130
-0.064,-0.120,-0.056,0.092,-0.004,-0.088,-0.050,-0.150,-0.161,-0.135,-0.135,-0.130
-0.068,-0.119,-0.052,0.094,-0.008,-0.085,-0.050,-0.150,-0.157,-0.135,-0.135,-0.130
-0.074,-0.122,-0.048,0.098,-0.013,-0.085,-0.050,-0.150,-0.155,-0.135,-0.135,-0.130
-0.082,-0.125,-0.044,0.104,-0.019,-0.084,-0.049,-0.150,-0.155,-0.135,-0.135,-0.131
-0.085,-0.125,-0.040,0.105,-0.022,-0.082,-0.045,-0.150,-0.155,-0.135,-0.135,-0.135
-0.081,-0.125,-0.044,0.103,-0.018,-0.084,-0.045,-0.150,-0.155,-0.135,-0.135,-0.135
-0.080,-0.125,-0.046,0.103,-0.017,-0.085,-0.045,-0.150,-0.152,-0.135,-0.135,-0.135
-0.080,-0.125,-0.045,0.103,-0.017,-0.085,-0.045,-0.150,-0.149,-0.135,-0.135,-0.135
-0.080,-0.125,-0.045,0.103,-0.017,-0.085,-0.045,-0.150,-0.150,-0.135,-0.135,-0.135
-0.080,-0.125,-0.045,0.103,-0.017,-0.085,-0.045,-0.150,-0.150,-0.135,-0.135,-0.135
-0.080,-0.125,-0.045,0.103,-0.017,-0.085,-0.041,-0.146,-0.150,-0.135,-0.135,-0.135
-0.083,-0.128,-0.045,0.106,-0.019,-0.086,-0.040,-0.145,-0.147,-0.135,-0.135,-0.134
-0.086,-0.131,-0.045,0.109,-0.020,-0.087,-0.040,-0.145,-0.144,-0.135,-0.135,-0.137
-0.085,-0.130,-0.045,0.108,-0.020,-0.087,-0.040,-0.145,-0.145,-0.135,-0.135,-0.140
-0.085,-0.130,-0.045,0.108,-0.020,-0.087,-0.040,-0.145,-0.145,-0.135,-0.135,-0.140
-0.085,-0.130,-0.045,0.108,-0.020,-0.087,-0.040,-0.145,-0.141,-0.135,-0.135,-0.140
-0.085,-0.130,-0.045,0.108,-0.020,-0.087,-0.041,-0.145,-0.140,-0.135,-0.135,-0.140
-0.085,-0.130,-0.045,0.108,-0.020,-0.087,-0.038,-0.145,-0.140,-0.135,-0.135,-0.140
-0.084,-0.130,-0.046,0.107,-0.019,-0.087,-0.035,-0.145,-0.140,-0.135,-0.135,-0.140
-0.080,-0.130,-0.050,0.105,-0.015,-0.090,-0.035,-0.145,-0.140,-0.135,-0.135,-0.140
-0.080,-0.130,-0.050,0.105,-0.015,-0.090,-0.035,-0.145,-0.136,-0.135,-0.135,-0.140
-0.077,-0.127,-0.050,0.102,-0.013,-0.088,-0.035,-0.145,-0.135,-0.135,-0.136,-0.141
-0.074,-0.124,-0.050,0.099,-0.012,-0.087,-0.035,-0.145,-0.135,-0.135,-0.133,-0.138
-0.075,-0.125,-0.050,0.100,-0.012,-0.087,-0.034,-0.145,-0.135,-0.134,-0.130,-0.135
-0.075,-0.125,-0.050,0.100,-0.012,-0.087,-0.030,-0.145,-0.135,-0.130,-0.130,-0.135
-0.075,-0.125,-0.050,0.100,-0.012,-0.087,-0.030,-0.145,-0.131,-0.130,-0.130,-0.131
-0.076,-0.126,-0.050,0.101,-0.012,-0.087,-0.030,-0.145,-0.130,-0.127,-0.127,-0.130
-0.073,-0.123,-0.050,0.098,-0.011,-0.086,-0.030,-0.145,-0.128,-0.125,-0.125,-0.128
-0.070,-0.120,-0.050,0.095,-0.010,-0.085,-0.030,-0.145,-0.124,-0.124,-0.125,-0.124
-0.070,-0.120,-0.050,0.095,-0.010,-0.085,-0.030,-0.145,-0.125,-0.120,-0.125,-0.125
-0.070,-0.120,-0.050,0.095,-0.010,-0.085,-0.030,-0.145,-0.126,-0.120,-0.125,-0.126
-0.069,-0.120,-0.051,0.094,-0.009,-0.085,-0.027,-0.145,-0.122,-0.121,-0.122,-0.122
-0.074,-0.121,-0.047,0.098,-0.014,-0.084,-0.025,-0.145,-0.120,-0.118,-0.119,-0.120
-0.080,-0.118,-0.038,0.099,-0.021,-0.078,-0.024,-0.145,-0.119,-0.115,-0.120,-0.119
-0.075,-0.105,-0.030,0.090,-0.022,-0.067,-0.020,-0.145,-0.115,-0.115,-0.120,-0.115
-0.075,-0.097,-0.022,0.086,-0.026,-0.059,-0.020,-0.146,-0.115,-0.111,-0.116,-0.115
-0.071,-0.086,-0.015,0.078,-0.028,-0.050,-0.017,-0.137,-0.116,-0.110,-0.115,-0.112
-0.073,-0.076,-0.003,0.074,-0.035,-0.039,-0.016,-0.124,-0.112,-0.108,-0.115,-0.109
-0.081,-0.067,0.014,0.074,-0.048,-0.026,-0.012,-0.111,-0.103,-0.104,-0.116,-0.111
-0.085,-0.055,0.030,0.070,-0.057,-0.012,0.005,-0.100,-0.095,-0.105,-0.115,-0.110
-0.094,-0.047,0.047,0.070,-0.070,0.000,0.021,-0.096,-0.086,-0.108,-0.099,-0.098
-0.095,-0.039,0.057,0.067,-0.076,0.009,0.039,-0.049,-0.087,-0.085,-0.087,-0.089
-0.112,-0.033,0.079,0.072,-0.095,0.023,0.060,0.014,-0.059,-0.059,-0.069,-0.079
-0.122,-0.028,0.094,0.075,-0.108,0.032,0.079,0.071,-0.002,-0.031,-0.044,-0.068
-0.095,-0.020,0.075,0.057,-0.085,0.027,0.100,0.155,0.050,0.015,-0.020,-0.060
-0.081,-0.016,0.065,0.048,-0.072,0.024,0.134,0.281,0.124,0.058,0.008,-0.048
-0.044,-0.009,0.035,0.026,-0.039,0.013,0.180,0.403,0.205,0.113,0.036,-0.038
0.000,-0.002,-0.002,0.001,0.001,-0.002,0.228,0.437,0.269,0.161,0.065,-0.015
0.034,0.000,-0.034,-0.016,0.034,-0.016,0.242,0.409,0.316,0.201,0.099,0.017
0.075,-0.005,-0.080,-0.035,0.078,-0.042,0.210,0.395,0.375,0.260,0.145,0.045
0.135,-0.014,-0.149,-0.060,0.142,-0.081,0.188,0.375,0.468,0.344,0.207,0.092
0.225,0.021,-0.205,-0.123,0.215,-0.092,0.132,0.382,0.542,0.422,0.284,0.145
0.305,0.063,-0.242,-0.183,0.273,-0.090,0.009,0.290,0.598,0.503,0.365,0.210
0.376,0.113,-0.263,-0.244,0.319,-0.074,-0.185,0.056,0.645,0.592,0.454,0.291
0.475,0.210,-0.265,-0.342,0.370,-0.027,-0.395,-0.165,0.700,0.690,0.565,0.385
0.577,0.313,-0.264,-0.444,0.421,0.024,-0.526,-0.268,0.809,0.821,0.693,0.493
0.696,0.427,-0.269,-0.561,0.482,0.079,-0.697,-0.445,0.901,0.953,0.821,0.599
0.791,0.538,-0.253,-0.664,0.521,0.143,-0.915,-0.597,1.047,1.125,0.981,0.733
0.867,0.577,-0.289,-0.721,0.578,0.144,-1.090,-0.626,1.201,1.274,1.118,0.850
0.960,0.495,-0.465,-0.727,0.712,0.015,-1.190,-0.620,1.215,1.285,1.135,0.875
1.035,0.366,-0.669,-0.700,0.852,-0.151,-1.290,-0.632,1.124,1.214,1.085,0.860
1.112,0.288,-0.824,-0.699,0.968,-0.268,-1.385,-0.714,0.933,1.078,1.033,0.843
1.068,0.227,-0.842,-0.647,0.955,-0.307,-1.441,-0.837,0.730,0.943,0.985,0.824
0.948,0.170,-0.778,-0.559,0.863,-0.304,-1.430,-0.934,0.582,0.850,0.932,0.800
0.885,0.155,-0.730,-0.520,0.807,-0.287,-1.360,-0.995,0.455,0.775,0.880,0.780
0.764,0.145,-0.620,-0.454,0.692,-0.238,-1.276,-1.076,0.292,0.665,0.810,0.746
0.635,0.083,-0.552,-0.358,0.593,-0.235,-1.193,-1.150,0.089,0.506,0.690,0.663
0.515,0.001,-0.513,-0.258,0.514,-0.255,-1.122,-1.300,-0.160,0.309,0.536,0.558
0.396,-0.075,-0.472,-0.161,0.434,-0.273,-1.068,-1.409,-0.386,0.124,0.384,0.461
0.300,-0.150,-0.450,-0.075,0.375,-0.300,-1.010,-1.330,-0.495,0.005,0.265,0.375
0.245,-0.183,-0.428,-0.031,0.337,-0.305,-0.913,-1.278,-0.517,-0.056,0.190,0.305
0.203,-0.183,-0.386,-0.010,0.295,-0.284,-0.796,-1.165,-0.500,-0.117,0.133,0.245
0.155,-0.179,-0.335,0.012,0.245,-0.257,-0.675,-1.008,-0.483,-0.162,0.075,0.183
0.119,-0.179,-0.299,0.030,0.209,-0.239,-0.565,-0.865,-0.463,-0.169,0.025,0.128
0.110,-0.175,-0.285,0.033,0.198,-0.230,-0.480,-0.735,-0.425,-0.160,-0.005,0.090
0.094,-0.175,-0.270,0.041,0.182,-0.222,-0.420,-0.623,-0.389,-0.156,-0.039,0.053
0.080,-0.172,-0.252,0.047,0.166,-0.211,-0.359,-0.541,-0.353,-0.152,-0.052,0.028
0.071,-0.170,-0.241,0.050,0.156,-0.205,-0.306,-0.466,-0.317,-0.148,-0.063,0.012
0.054,-0.169,-0.223,0.058,0.138,-0.196,-0.246,-0.377,-0.281,-0.144,-0.086,-0.004
0.015,-0.165,-0.180,0.075,0.098,-0.172,-0.165,-0.290,-0.240,-0.140,-0.100,-0.015
-0.028,-0.165,-0.137,0.097,0.055,-0.151,-0.112,-0.229,-0.199,-0.136,-0.096,-0.023
-0.040,-0.162,-0.121,0.101,0.041,-0.141,-0.062,-0.172,-0.171,-0.129,-0.094,-0.034
-0.043,-0.160,-0.117,0.101,0.037,-0.138,-0.023,-0.123,-0.149,-0.121,-0.095,-0.044
-0.051,-0.159,-0.108,0.105,0.028,-0.133,0.001,-0.085,-0.132,-0.113,-0.095,-0.053
-0.055,-0.155,-0.100,0.105,0.023,-0.127,0.025,-0.050,-0.125,-0.105,-0.095,-0.065
-0.063,-0.155,-0.092,0.109,0.015,-0.123,0.047,-0.033,-0.121,-0.097,-0.095,-0.073
-0.068,-0.152,-0.084,0.110,0.008,-0.118,0.054,-0.019,-0.118,-0.089,-0.095,-0.079
-0.072,-0.148,-0.076,0.110,0.002,-0.112,0.056,-0.002,-0.111,-0.080,-0.095,-0.080
-0.076,-0.144,-0.068,0.110,-0.003,-0.106,0.062,0.013,-0.104,-0.083,-0.095,-0.081
-0.075,-0.140,-0.065,0.108,-0.005,-0.102,0.070,0.025,-0.100,-0.100,-0.095,-0.085
-0.071,-0.136,-0.065,0.104,-0.003,-0.100,0.073,0.034,-0.096,-0.097,-0.095,-0.085
-0.066,-0.131,-0.065,0.099,0.000,-0.098,0.089,0.037,-0.089,-0.094,-0.095,-0.088
-0.066,-0.131,-0.065,0.099,-0.001,-0.097,0.110,0.047,-0.080,-0.096,-0.095,-0.091
-0.063,-0.128,-0.065,0.096,0.001,-0.096,0.122,0.063,-0.074,-0.094,-0.095,-0.088
-0.050,-0.115,-0.065,0.083,0.008,-0.090,0.125,0.070,-0.070,-0.090,-0.095,-0.080
-0.043,-0.104,-0.061,0.074,0.009,-0.082,0.125,0.081,-0.062,-0.090,-0.095,-0.076
-0.023,-0.083,-0.060,0.053,0.018,-0.071,0.129,0.095,-0.053,-0.091,-0.096,-0.073
0.002,-0.058,-0.060,0.028,0.031,-0.059,0.129,0.103,-0.048,-0.087,-0.090,-0.066
0.027,-0.033,-0.060,0.003,0.044,-0.046,0.133,0.115,-0.043,-0.078,-0.077,-0.059
0.055,-0.005,-0.060,-0.025,0.058,-0.032,0.155,0.140,-0.035,-0.070,-0.070,-0.055
0.079,0.019,-0.060,-0.049,0.069,-0.020,0.173,0.146,-0.027,-0.062,-0.062,-0.050
0.106,0.046,-0.061,-0.076,0.083,-0.007,0.177,0.144,-0.019,-0.054,-0.054,-0.053
0.116,0.058,-0.058,-0.086,0.087,0.000,0.188,0.164,-0.011,-0.046,-0.046,-0.056
0.118,0.064,-0.055,-0.090,0.086,0.004,0.201,0.189,-0.003,-0.037,-0.037,-0.055
0.135,0.080,-0.055,-0.107,0.095,0.012,0.195,0.190,0.005,-0.030,-0.030,-0.055
0.128,0.073,-0.055,-0.100,0.092,0.008,0.195,0.194,0.014,-0.034,-0.034,-0.055
0.121,0.066,-0.055,-0.093,0.087,0.005,0.195,0.199,0.016,-0.036,-0.036,-0.055
0.119,0.064,-0.055,-0.091,0.087,0.004,0.195,0.200,0.015,-0.035,-0.034,-0.055
0.112,0.058,-0.054,-0.085,0.083,0.001,0.195,0.201,0.015,-0.035,-0.036,-0.055
0.100,0.050,-0.050,-0.075,0.075,0.000,0.195,0.205,0.015,-0.035,-0.040,-0.055
0.095,0.046,-0.050,-0.071,0.072,-0.002,0.195,0.204,0.015,-0.039,-0.040,-0.055
0.093,0.043,-0.050,-0.068,0.071,-0.003,0.195,0.214,0.015,-0.040,-0.039,-0.055
0.084,0.035,-0.050,-0.060,0.067,-0.008,0.195,0.223,0.014,-0.040,-0.042,-0.055
0.072,0.022,-0.050,-0.047,0.061,-0.013,0.195,0.227,0.016,-0.040,-0.045,-0.056
0.065,0.015,-0.050,-0.040,0.057,-0.017,0.195,0.235,0.025,-0.040,-0.045,-0.060
0.058,0.007,-0.050,-0.033,0.054,-0.021,0.195,0.239,0.034,-0.040,-0.045,-0.060
0.043,-0.004,-0.047,-0.019,0.045,-0.025,0.195,0.243,0.033,-0.043,-0.045,-0.063
0.029,-0.015,-0.044,-0.006,0.037,-0.029,0.195,0.246,0.029,-0.046,-0.046,-0.065
0.025,-0.020,-0.045,-0.002,0.035,-0.032,0.195,0.245,0.030,-0.045,-0.052,-0.066
0.015,-0.030,-0.045,0.008,0.030,-0.037,0.195,0.245,0.030,-0.045,-0.060,-0.070
-0.019,-0.064,-0.045,0.042,0.013,-0.054,0.195,0.246,0.030,-0.045,-0.065,-0.070
-0.027,-0.072,-0.045,0.050,0.009,-0.058,0.195,0.238,0.030,-0.046,-0.062,-0.070
-0.045,-0.090,-0.045,0.068,0.000,-0.068,0.195,0.254,0.030,-0.043,-0.060,-0.068
-0.073,-0.118,-0.045,0.096,-0.013,-0.081,0.195,0.284,0.030,-0.040,-0.059,-0.073
-0.065,-0.110,-0.045,0.088,-0.010,-0.077,0.195,0.285,0.030,-0.040,-0.055,-0.090
-0.065,-0.110,-0.045,0.088,-0.010,-0.077,0.195,0.288,0.030,-0.036,-0.055,-0.087
-0.062,-0.107,-0.045,0.085,-0.008,-0.076,0.195,0.294,0.030,-0.035,-0.056,-0.084
-0.060,-0.105,-0.045,0.083,-0.007,-0.075,0.195,0.294,0.029,-0.033,-0.053,-0.086
-0.059,-0.104,-0.045,0.082,-0.007,-0.075,0.195,0.298,0.032,-0.030,-0.050,-0.084
-0.055,-0.100,-0.045,0.078,-0.005,-0.072,0.195,0.315,0.040,-0.030,-0.050,-0.080
-0.059,-0.100,-0.041,0.079,-0.009,-0.070,0.195,0.328,0.044,-0.026,-0.046,-0.080
-0.061,-0.101,-0.040,0.081,-0.011,-0.070,0.198,0.337,0.051,-0.025,-0.044,-0.081
-0.058,-0.098,-0.040,0.078,-0.009,-0.069,0.202,0.358,0.057,-0.023,-0.046,-0.078
-0.055,-0.095,-0.040,0.075,-0.007,-0.067,0.206,0.378,0.062,-0.020,-0.044,-0.075
-0.055,-0.095,-0.040,0.075,-0.007,-0.067,0.210,0.380,0.070,-0.020,-0.040,-0.075
-0.051,-0.091,-0.040,0.071,-0.005,-0.065,0.214,0.390,0.073,-0.016,-0.040,-0.075
-0.050,-0.090,-0.040,0.070,-0.005,-0.065,0.218,0.413,0.087,-0.015,-0.037,-0.072
-0.048,-0.088,-0.040,0.068,-0.004,-0.064,0.222,0.434,0.101,-0.013,-0.034,-0.069
-0.044,-0.084,-0.040,0.064,-0.002,-0.062,0.226,0.448,0.106,-0.010,-0.035,-0.070
-0.045,-0.085,-0.040,0.065,-0.002,-0.062,0.235,0.465,0.110,-0.010,-0.035,-0.070
-0.046,-0.086,-0.040,0.066,-0.002,-0.062,0.247,0.489,0.122,-0.002,-0.031,-0.066
-0.039,-0.079,-0.040,0.059,0.001,-0.059,0.258,0.512,0.134,0.006,-0.029,-0.064
-0.032,-0.072,-0.040,0.052,0.005,-0.056,0.276,0.541,0.146,0.014,-0.030,-0.066
-0.030,-0.069,-0.039,0.050,0.005,-0.054,0.292,0.571,0.157,0.022,-0.029,-0.064
-0.030,-0.065,-0.035,0.048,0.003,-0.050,0.295,0.590,0.170,0.030,-0.025,-0.060
-0.022,-0.057,-0.035,0.040,0.007,-0.046,0.306,0.614,0.195,0.038,-0.021,-0.060
-0.016,-0.052,-0.036,0.034,0.010,-0.043,0.320,0.639,0.208,0.043,-0.017,-0.061
-0.015,-0.048,-0.033,0.032,0.009,-0.040,0.329,0.660,0.212,0.047,-0.013,-0.057
-0.014,-0.044,-0.030,0.029,0.008,-0.036,0.329,0.680,0.216,0.051,-0.009,-0.048
-0.010,-0.040,-0.030,0.025,0.010,-0.035,0.330,0.705,0.225,0.055,-0.005,-0.045
-0.006,-0.036,-0.030,0.021,0.013,-0.033,0.348,0.735,0.242,0.067,-0.006,-0.042
-0.005,-0.032,-0.027,0.019,0.011,-0.029,0.348,0.749,0.246,0.075,0.003,-0.034
-0.004,-0.028,-0.025,0.016,0.011,-0.026,0.364,0.781,0.263,0.088,0.015,-0.027
0.001,-0.024,-0.025,0.012,0.014,-0.024,0.395,0.821,0.289,0.103,0.022,-0.024
0.005,-0.020,-0.025,0.008,0.015,-0.022,0.400,0.830,0.295,0.110,0.030,-0.020
0.005,-0.021,-0.026,0.008,0.015,-0.023,0.403,0.845,0.311,0.118,0.038,-0.016
0.006,-0.014,-0.020,0.005,0.013,-0.016,0.411,0.864,0.326,0.124,0.046,-0.012
0.003,-0.008,-0.010,0.003,0.007,-0.009,0.419,0.890,0.346,0.140,0.054,-0.008
0.001,-0.003,-0.004,0.002,0.003,-0.004,0.426,0.914,0.362,0.159,0.062,-0.004
0.005,0.005,0.000,-0.005,0.002,0.002,0.430,0.925,0.370,0.165,0.070,0.000
0.001,0.009,0.008,-0.005,-0.004,0.008,0.435,0.951,0.391,0.168,0.074,0.005
0.000,0.016,0.016,-0.008,-0.008,0.016,0.431,0.956,0.396,0.177,0.079,0.004
-0.001,0.022,0.023,-0.011,-0.012,0.022,0.449,0.975,0.400,0.181,0.079,0.008
0.002,0.027,0.025,-0.015,-0.012,0.026,0.472,1.005,0.420,0.189,0.084,0.017
0.015,0.040,0.025,-0.028,-0.005,0.032,0.465,1.010,0.440,0.210,0.105,0.025
0.023,0.048,0.025,-0.036,-0.001,0.036,0.464,1.022,0.453,0.223,0.114,0.033
0.032,0.057,0.025,-0.045,0.003,0.041,0.466,1.027,0.461,0.232,0.118,0.041
0.050,0.075,0.025,-0.063,0.012,0.050,0.463,1.023,0.470,0.236,0.121,0.049
0.068,0.093,0.025,-0.081,0.021,0.058,0.460,1.029,0.484,0.244,0.127,0.056
0.070,0.095,0.025,-0.083,0.022,0.060,0.460,1.045,0.500,0.265,0.140,0.060
0.068,0.093,0.025,-0.081,0.021,0.059,0.460,1.038,0.505,0.270,0.149,0.064
0.081,0.107,0.026,-0.094,0.027,0.066,0.457,1.032,0.504,0.270,0.154,0.065
0.080,0.118,0.039,-0.099,0.020,0.078,0.455,1.026,0.509,0.270,0.156,0.065
0.071,0.121,0.051,-0.096,0.010,0.086,0.455,1.019,0.515,0.279,0.163,0.074
0.085,0.130,0.045,-0.108,0.020,0.087,0.455,1.015,0.510,0.295,0.180,0.090
0.090,0.135,0.045,-0.113,0.022,0.090,0.456,1.007,0.506,0.291,0.189,0.095
0.094,0.136,0.042,-0.115,0.026,0.089,0.450,1.003,0.502,0.290,0.194,0.098
0.109,0.148,0.040,-0.128,0.035,0.094,0.441,0.994,0.500,0.288,0.193,0.103
0.122,0.161,0.039,-0.141,0.041,0.100,0.433,0.983,0.499,0.285,0.189,0.105
0.120,0.155,0.035,-0.138,0.042,0.095,0.425,0.970,0.495,0.285,0.190,0.105
0.116,0.150,0.035,-0.133,0.040,0.092,0.417,0.935,0.491,0.281,0.190,0.109
0.115,0.150,0.036,-0.133,0.040,0.093,0.409,0.900,0.490,0.280,0.191,0.113
0.115,0.148,0.033,-0.132,0.041,0.090,0.402,0.872,0.489,0.278,0.188,0.117
0.115,0.145,0.030,-0.130,0.042,0.087,0.391,0.851,0.484,0.275,0.185,0.121
0.115,0.145,0.030,-0.130,0.042,0.087,0.370,0.830,0.480,0.275,0.185,0.120
0.115,0.141,0.026,-0.128,0.045,0.083,0.350,0.794,0.481,0.271,0.185,0.116
0.115,0.140,0.025,-0.128,0.045,0.082,0.327,0.761,0.469,0.270,0.185,0.115
0.115,0.139,0.023,-0.127,0.046,0.080,0.304,0.727,0.452,0.268,0.185,0.113
0.114,0.134,0.019,-0.124,0.047,0.076,0.286,0.692,0.436,0.265,0.184,0.110
0.110,0.130,0.020,-0.120,0.045,0.075,0.270,0.660,0.420,0.265,0.180,0.110
0.110,0.130,0.020,-0.120,0.045,0.075,0.254,0.616,0.408,0.260,0.180,0.106
0.109,0.127,0.017,-0.118,0.046,0.072,0.237,0.574,0.393,0.261,0.180,0.105
0.112,0.125,0.012,-0.119,0.049,0.068,0.224,0.538,0.377,0.254,0.180,0.103
0.114,0.124,0.010,-0.119,0.052,0.067,0.211,0.508,0.360,0.236,0.181,0.100
0.110,0.120,0.010,-0.115,0.050,0.065,0.195,0.480,0.340,0.225,0.180,0.100
0.115,0.121,0.006,-0.118,0.055,0.063,0.179,0.444,0.325,0.213,0.168,0.096
0.107,0.112,0.005,-0.110,0.051,0.058,0.163,0.411,0.300,0.201,0.158,0.095
0.096,0.100,0.004,-0.099,0.046,0.052,0.146,0.379,0.272,0.187,0.152,0.092
0.095,0.093,-0.001,-0.094,0.048,0.046,0.132,0.348,0.250,0.172,0.142,0.083
0.090,0.085,-0.005,-0.087,0.047,0.040,0.125,0.320,0.235,0.160,0.130,0.075
0.077,0.073,-0.005,-0.075,0.041,0.034,0.117,0.288,0.219,0.148,0.122,0.071
0.072,0.064,-0.008,-0.068,0.040,0.027,0.112,0.258,0.202,0.136,0.115,0.065
0.066,0.056,-0.010,-0.061,0.038,0.023,0.107,0.234,0.189,0.124,0.104,0.055
0.059,0.048,-0.011,-0.054,0.035,0.018,0.098,0.215,0.176,0.112,0.093,0.049
0.060,0.040,-0.020,-0.050,0.040,0.010,0.090,0.195,0.155,0.100,0.085,0.045
0.060,0.032,-0.028,-0.046,0.044,0.002,0.086,0.175,0.139,0.088,0.073,0.037
0.063,0.027,-0.036,-0.045,0.049,-0.004,0.082,0.155,0.121,0.076,0.064,0.032
0.065,0.022,-0.043,-0.043,0.053,-0.010,0.078,0.137,0.099,0.064,0.054,0.026
0.057,0.013,-0.044,-0.034,0.050,-0.016,0.075,0.121,0.081,0.053,0.043,0.019
0.045,0.005,-0.040,-0.025,0.042,-0.017,0.075,0.105,0.070,0.045,0.035,0.015
0.041,0.001,-0.040,-0.021,0.040,-0.019,0.071,0.092,0.062,0.037,0.027,0.007
0.037,-0.003,-0.040,-0.017,0.039,-0.021,0.066,0.084,0.055,0.029,0.019,0.001
0.034,-0.006,-0.040,-0.014,0.038,-0.022,0.065,0.074,0.044,0.021,0.011,-0.002
0.035,-0.005,-0.040,-0.015,0.038,-0.022,0.064,0.063,0.033,0.013,0.003,-0.006
0.035,-0.005,-0.040,-0.015,0.038,-0.022,0.060,0.055,0.025,0.005,-0.005,-0.010
0.031,-0.009,-0.040,-0.011,0.036,-0.024,0.060,0.043,0.017,-0.003,-0.013,-0.010
0.029,-0.011,-0.040,-0.009,0.035,-0.025,0.057,0.030,0.008,-0.008,-0.021,-0.013
0.031,-0.009,-0.040,-0.011,0.035,-0.025,0.055,0.021,0.003,-0.011,-0.028,-0.015
0.028,-0.012,-0.040,-0.008,0.034,-0.026,0.054,0.012,-0.002,-0.017,-0.030,-0.016
0.020,-0.020,-0.040,0.000,0.030,-0.030,0.050,0.000,-0.010,-0.025,-0.030,-0.020
0.016,-0.024,-0.040,0.004,0.029,-0.031,0.050,-0.012,-0.014,-0.029,-0.034,-0.020
0.009,-0.031,-0.040,0.011,0.025,-0.035,0.051,-0.022,-0.021,-0.033,-0.035,-0.022
0.003,-0.037,-0.040,0.017,0.022,-0.038,0.048,-0.028,-0.027,-0.037,-0.037,-0.028
-0.002,-0.042,-0.040,0.022,0.019,-0.041,0.045,-0.030,-0.031,-0.040,-0.041,-0.030
-0.010,-0.050,-0.040,0.030,0.015,-0.045,0.045,-0.030,-0.035,-0.040,-0.040,-0.030
-0.013,-0.054,-0.041,0.034,0.014,-0.047,0.041,-0.030,-0.035,-0.044,-0.040,-0.034
-0.021,-0.058,-0.037,0.040,0.008,-0.047,0.040,-0.033,-0.038,-0.045,-0.043,-0.035
-0.010,-0.062,-0.052,0.036,0.021,-0.057,0.038,-0.036,-0.040,-0.047,-0.046,-0.037
0.005,-0.067,-0.072,0.031,0.039,-0.069,0.035,-0.035,-0.041,-0.050,-0.045,-0.040
-0.010,-0.075,-0.065,0.043,0.028,-0.070,0.035,-0.035,-0.045,-0.050,-0.045,-0.040
-0.015,-0.079,-0.064,0.048,0.025,-0.071,0.035,-0.039,-0.045,-0.054,-0.049,-0.044
-0.017,-0.083,-0.065,0.051,0.024,-0.074,0.038,-0.040,-0.048,-0.058,-0.051,-0.045
-0.022,-0.088,-0.065,0.056,0.022,-0.076,0.041,-0.042,-0.050,-0.062,-0.049,-0.047
-0.025,-0.090,-0.064,0.058,0.019,-0.076,0.040,-0.046,-0.051,-0.066,-0.051,-0.050
-0.025,-0.085,-0.060,0.055,0.018,-0.072,0.040,-0.045,-0.055,-0.065,-0.055,-0.050
-0.025,-0.085,-0.060,0.055,0.018,-0.072,0.040,-0.041,-0.056,-0.061,-0.055,-0.054
-0.025,-0.085,-0.060,0.055,0.018,-0.072,0.040,-0.040,-0.052,-0.060,-0.055,-0.056
-0.025,-0.085,-0.060,0.055,0.018,-0.072,0.040,-0.040,-0.049,-0.060,-0.053,-0.053
-0.025,-0.084,-0.059,0.055,0.018,-0.071,0.040,-0.040,-0.050,-0.060,-0.050,-0.050
-0.025,-0.080,-0.055,0.053,0.015,-0.067,0.040,-0.040,-0.050,-0.060,-0.050,-0.050
-0.025,-0.080,-0.055,0.053,0.015,-0.067,0.040,-0.040,-0.050,-0.060,-0.050,-0.050
-0.025,-0.080,-0.055,0.053,0.015,-0.067,0.040,-0.040,-0.051,-0.057,-0.050,-0.050
