I,II,III,aVR,aVL,aVF,V1,V2,V3,V4,V5,V6
-0.125,0.160,0.285,-0.018,-0.205,0.222,-0.015,-0.060,-0.060,-0.075,-0.080,0.025
-0.125,0.160,0.285,-0.018,-0.205,0.222,-0.015,-0.060,-0.060,-0.075,-0.080,0.025
-0.125,0.160,0.285,-0.018,-0.205,0.222,-0.015,-0.060,-0.060,-0.075,-0.080,0.025
-0.125,0.160,0.285,-0.018,-0.205,0.222,-0.015,-0.060,-0.060,-0.075,-0.080,0.025
-0.125,0.160,0.285,-0.018,-0.205,0.222,-0.015,-0.060,-0.060,-0.075,-0.080,0.025
-0.125,0.160,0.285,-0.018,-0.205,0.222,-0.015,-0.060,-0.060,-0.075,-0.080,0.025
-0.125,0.156,0.281,-0.016,-0.203,0.218,-0.015,-0.060,-0.060,-0.075,-0.080,0.025
-0.128,0.152,0.280,-0.012,-0.204,0.216,-0.015,-0.060,-0.060,-0.075,-0.080,0.025
-0.131,0.147,0.278,-0.008,-0.205,0.213,-0.015,-0.060,-0.060,-0.075,-0.080,0.025
-0.129,0.145,0.274,-0.009,-0.202,0.210,-0.015,-0.060,-0.060,-0.075,-0.080,0.025
-0.125,0.150,0.275,-0.013,-0.200,0.212,-0.015,-0.060,-0.060,-0.075,-0.080,0.025
-0.125,0.150,0.275,-0.013,-0.200,0.212,-0.015,-0.060,-0.060,-0.075,-0.080,0.025
-0.122,0.150,0.272,-0.014,-0.197,0.211,-0.015,-0.060,-0.060,-0.075,-0.077,0.025
-0.119,0.150,0.269,-0.015,-0.194,0.210,-0.015,-0.060,-0.060,-0.075,-0.074,0.025
-0.120,0.150,0.270,-0.015,-0.195,0.210,-0.015,-0.061,-0.060,-0.075,-0.075,0.025
-0.120,0.150,0.270,-0.015,-0.195,0.210,-0.015,-0.065,-0.060,-0.075,-0.075,0.025
-0.115,0.151,0.266,-0.018,-0.190,0.208,-0.015,-0.065,-0.060,-0.075,-0.075,0.025
-0.120,0.144,0.264,-0.012,-0.193,0.204,-0.015,-0.065,-0.060,-0.075,-0.075,0.025
-0.143,0.123,0.266,0.009,-0.204,0.194,-0.015,-0.065,-0.060,-0.075,-0.075,0.025
-0.136,0.128,0.264,0.003,-0.200,0.196,-0.015,-0.065,-0.060,-0.075,-0.075,0.025
-0.085,0.175,0.260,-0.045,-0.173,0.217,-0.015,-0.065,-0.060,-0.075,-0.075,0.025
-0.087,0.174,0.260,-0.043,-0.173,0.217,-0.015,-0.065,-0.060,-0.075,-0.071,0.025
-0.091,0.166,0.257,-0.037,-0.175,0.211,-0.015,-0.065,-0.060,-0.075,-0.070,0.025
-0.091,0.163,0.254,-0.037,-0.173,0.209,-0.015,-0.065,-0.060,-0.075,-0.070,0.025
-0.096,0.159,0.255,-0.032,-0.176,0.207,-0.015,-0.065,-0.060,-0.075,-0.070,0.025
-0.100,0.155,0.255,-0.028,-0.178,0.205,-0.015,-0.065,-0.060,-0.075,-0.070,0.025
-0.100,0.151,0.251,-0.026,-0.175,0.201,-0.015,-0.065,-0.060,-0.075,-0.070,0.025
-0.102,0.147,0.249,-0.023,-0.176,0.198,-0.015,-0.064,-0.060,-0.075,-0.070,0.026
-0.109,0.142,0.251,-0.016,-0.180,0.195,-0.015,-0.067,-0.062,-0.077,-0.070,0.023
-0.117,0.133,0.249,-0.008,-0.183,0.191,-0.015,-0.070,-0.066,-0.081,-0.070,0.020
-0.120,0.125,0.245,-0.003,-0.183,0.185,-0.015,-0.070,-0.070,-0.080,-0.070,0.020
-0.123,0.121,0.244,0.000,-0.184,0.182,-0.007,-0.070,-0.074,-0.078,-0.072,0.020
-0.133,0.114,0.248,0.009,-0.191,0.181,-0.001,-0.070,-0.075,-0.093,-0.091,0.020
-0.130,0.106,0.236,0.012,-0.183,0.171,0.002,-0.070,-0.075,-0.100,-0.101,0.020
-0.136,0.098,0.235,0.019,-0.186,0.167,0.006,-0.071,-0.075,-0.094,-0.094,0.020
-0.170,0.095,0.265,0.037,-0.218,0.180,0.010,-0.075,-0.075,-0.095,-0.095,0.020
-0.153,0.109,0.262,0.022,-0.208,0.186,0.014,-0.075,-0.075,-0.095,-0.095,0.020
-0.091,0.168,0.259,-0.039,-0.175,0.213,0.019,-0.075,-0.075,-0.095,-0.095,0.020
-0.073,0.188,0.261,-0.057,-0.167,0.224,0.019,-0.075,-0.075,-0.095,-0.095,0.020
-0.108,0.151,0.259,-0.022,-0.183,0.205,0.014,-0.075,-0.075,-0.095,-0.095,0.020
-0.125,0.130,0.255,-0.003,-0.190,0.192,0.015,-0.075,-0.075,-0.095,-0.095,0.020
-0.133,0.122,0.255,0.005,-0.194,0.188,0.015,-0.075,-0.075,-0.095,-0.095,0.020
-0.142,0.114,0.256,0.014,-0.199,0.184,0.016,-0.075,-0.075,-0.095,-0.095,0.020
-0.145,0.108,0.253,0.019,-0.199,0.180,0.013,-0.075,-0.075,-0.095,-0.095,0.020
-0.155,0.095,0.250,0.030,-0.202,0.172,0.010,-0.075,-0.076,-0.095,-0.095,0.020
-0.160,0.090,0.250,0.035,-0.205,0.170,0.010,-0.075,-0.080,-0.095,-0.095,0.020
-0.106,0.144,0.250,-0.019,-0.179,0.197,0.010,-0.075,-0.080,-0.095,-0.095,0.020
-0.089,0.158,0.247,-0.035,-0.168,0.202,0.010,-0.075,-0.080,-0.095,-0.095,0.020
-0.099,0.145,0.244,-0.024,-0.172,0.195,0.010,-0.075,-0.080,-0.095,-0.095,0.020
-0.100,0.145,0.245,-0.023,-0.173,0.195,0.009,-0.075,-0.080,-0.095,-0.095,0.020
-0.100,0.145,0.245,-0.023,-0.173,0.195,0.005,-0.075,-0.080,-0.095,-0.095,0.020
-0.100,0.141,0.241,-0.020,-0.171,0.191,0.005,-0.075,-0.080,-0.095,-0.095,0.020
-0.099,0.140,0.239,-0.020,-0.169,0.190,0.005,-0.075,-0.080,-0.095,-0.095,0.020
-0.102,0.138,0.241,-0.018,-0.172,0.189,0.005,-0.075,-0.080,-0.095,-0.095,0.020
-0.104,0.135,0.239,-0.015,-0.172,0.186,0.005,-0.075,-0.080,-0.095,-0.095,0.020
-0.100,0.135,0.235,-0.018,-0.168,0.185,0.005,-0.075,-0.080,-0.095,-0.095,0.020
-0.103,0.131,0.235,-0.015,-0.169,0.183,0.001,-0.074,-0.080,-0.095,-0.095,0.016
-0.109,0.126,0.236,-0.009,-0.173,0.181,0.000,-0.078,-0.079,-0.095,-0.095,0.015
-0.108,0.125,0.233,-0.009,-0.171,0.179,-0.002,-0.064,-0.082,-0.095,-0.095,0.013
-0.105,0.124,0.230,-0.009,-0.168,0.176,-0.005,-0.060,-0.085,-0.095,-0.095,0.010
-0.110,0.120,0.230,-0.005,-0.170,0.175,-0.005,-0.095,-0.085,-0.095,-0.095,0.010
-0.109,0.120,0.230,-0.006,-0.169,0.175,-0.009,-0.097,-0.085,-0.099,-0.099,0.006
-0.116,0.117,0.232,0.000,-0.174,0.174,-0.010,-0.094,-0.088,-0.100,-0.101,0.005
-0.106,0.116,0.222,-0.005,-0.165,0.168,-0.012,-0.095,-0.091,-0.100,-0.099,0.003
-0.114,0.113,0.227,0.001,-0.171,0.170,-0.015,-0.095,-0.090,-0.100,-0.101,0.000
-0.160,0.110,0.270,0.025,-0.215,0.190,-0.015,-0.095,-0.090,-0.100,-0.105,0.000
-0.134,0.143,0.276,-0.005,-0.205,0.209,-0.019,-0.095,-0.094,-0.100,-0.105,-0.004
-0.118,0.157,0.274,-0.020,-0.196,0.215,-0.020,-0.095,-0.096,-0.101,-0.104,-0.005
-0.121,0.154,0.275,-0.017,-0.199,0.215,-0.022,-0.095,-0.095,-0.097,-0.107,-0.006
-0.120,0.155,0.275,-0.018,-0.198,0.215,-0.025,-0.095,-0.096,-0.088,-0.110,-0.011
-0.120,0.155,0.275,-0.018,-0.198,0.215,-0.025,-0.095,-0.095,-0.080,-0.110,-0.015
-0.116,0.159,0.275,-0.022,-0.196,0.216,-0.029,-0.095,-0.083,-0.076,-0.110,-0.019
-0.113,0.162,0.275,-0.025,-0.194,0.218,-0.031,-0.096,-0.073,-0.069,-0.111,-0.025
-0.121,0.154,0.275,-0.017,-0.198,0.214,-0.026,-0.092,-0.067,-0.061,-0.107,-0.020
-0.105,0.170,0.275,-0.033,-0.190,0.222,-0.018,-0.083,-0.057,-0.053,-0.098,-0.007
-0.075,0.200,0.275,-0.063,-0.175,0.237,-0.015,-0.075,-0.045,-0.050,-0.090,0.000
-0.135,0.140,0.275,-0.003,-0.205,0.207,-0.011,-0.071,-0.037,-0.067,-0.082,0.008
-0.091,0.185,0.276,-0.047,-0.184,0.230,-0.004,-0.064,-0.028,-0.069,-0.074,0.016
-0.037,0.235,0.272,-0.100,-0.155,0.254,0.003,-0.056,-0.026,-0.064,-0.066,0.024
-0.046,0.216,0.262,-0.085,-0.154,0.239,0.006,-0.048,-0.031,-0.065,-0.058,0.032
-0.045,0.215,0.260,-0.085,-0.153,0.237,0.010,-0.045,-0.030,-0.065,-0.050,0.040
-0.061,0.216,0.277,-0.077,-0.170,0.246,0.018,-0.049,-0.030,-0.061,-0.045,0.044
-0.066,0.212,0.279,-0.073,-0.173,0.245,0.026,-0.051,-0.030,-0.059,-0.045,0.045
-0.051,0.208,0.259,-0.078,-0.155,0.233,0.033,-0.050,-0.030,-0.060,-0.043,0.044
-0.066,0.204,0.271,-0.069,-0.169,0.237,0.043,-0.050,-0.030,-0.059,-0.040,0.046
-0.125,0.205,0.330,-0.040,-0.228,0.267,0.050,-0.050,-0.030,-0.055,-0.040,0.050
-0.125,0.213,0.337,-0.045,-0.231,0.275,0.038,-0.050,-0.030,-0.050,-0.036,0.050
-0.115,0.219,0.333,-0.053,-0.224,0.276,0.028,-0.053,-0.030,-0.050,-0.035,0.050
-0.131,0.206,0.337,-0.038,-0.235,0.272,0.021,-0.056,-0.030,-0.048,-0.033,0.050
-0.109,0.231,0.340,-0.061,-0.225,0.285,0.013,-0.055,-0.030,-0.045,-0.030,0.059
-0.035,0.305,0.340,-0.135,-0.188,0.322,0.005,-0.055,-0.030,-0.045,-0.030,0.075
-0.059,0.283,0.342,-0.112,-0.201,0.312,-0.003,-0.056,-0.030,-0.041,-0.026,0.071
-0.111,0.242,0.354,-0.066,-0.232,0.298,-0.009,-0.052,-0.030,-0.036,-0.025,0.070
-0.064,0.252,0.317,-0.094,-0.191,0.284,-0.026,-0.064,-0.030,-0.035,-0.025,0.068
-0.022,0.277,0.299,-0.128,-0.161,0.288,-0.041,-0.083,-0.030,-0.034,-0.025,0.065
-0.110,0.260,0.370,-0.075,-0.240,0.315,-0.035,-0.085,-0.030,-0.030,-0.025,0.065
-0.121,0.241,0.362,-0.060,-0.242,0.302,-0.035,-0.085,-0.030,-0.029,-0.025,0.061
-0.063,0.283,0.346,-0.111,-0.205,0.315,-0.035,-0.085,-0.030,-0.033,-0.025,0.059
-0.037,0.305,0.342,-0.135,-0.190,0.324,-0.035,-0.085,-0.030,-0.035,-0.025,0.061
-0.053,0.279,0.332,-0.114,-0.193,0.306,-0.035,-0.085,-0.030,-0.035,-0.025,0.059
-0.055,0.265,0.320,-0.105,-0.188,0.292,-0.035,-0.085,-0.030,-0.035,-0.025,0.055
-0.062,0.249,0.312,-0.093,-0.188,0.280,-0.035,-0.085,-0.030,-0.035,-0.025,0.055
-0.072,0.232,0.305,-0.080,-0.189,0.268,-0.035,-0.084,-0.030,-0.035,-0.025,0.052
-0.075,0.219,0.294,-0.072,-0.185,0.256,-0.035,-0.087,-0.030,-0.035,-0.025,0.050
-0.076,0.207,0.283,-0.066,-0.179,0.244,-0.035,-0.090,-0.030,-0.036,-0.025,0.049
-0.080,0.195,0.275,-0.058,-0.178,0.235,-0.035,-0.090,-0.030,-0.040,-0.025,0.045
-0.076,0.187,0.263,-0.056,-0.170,0.225,-0.035,-0.090,-0.029,-0.044,-0.033,0.045
-0.077,0.177,0.253,-0.050,-0.165,0.215,-0.035,-0.090,-0.034,-0.049,-0.042,0.046
-0.084,0.163,0.247,-0.040,-0.166,0.205,-0.035,-0.090,-0.035,-0.048,-0.048,0.043
-0.092,0.153,0.245,-0.031,-0.169,0.199,-0.035,-0.090,-0.046,-0.054,-0.059,0.040
-0.100,0.145,0.245,-0.023,-0.173,0.195,-0.035,-0.090,-0.075,-0.075,-0.075,0.040
-0.107,0.133,0.241,-0.013,-0.174,0.187,-0.035,-0.090,-0.081,-0.076,-0.076,0.036
-0.120,0.120,0.240,0.000,-0.180,0.180,-0.035,-0.093,-0.079,-0.074,-0.075,0.035
-0.127,0.111,0.238,0.008,-0.183,0.174,-0.035,-0.096,-0.082,-0.075,-0.075,0.033
-0.132,0.102,0.235,0.014,-0.184,0.169,-0.035,-0.095,-0.085,-0.075,-0.075,0.029
-0.145,0.090,0.235,0.027,-0.190,0.162,-0.035,-0.095,-0.085,-0.075,-0.075,0.030
-0.150,0.077,0.227,0.036,-0.189,0.152,-0.035,-0.095,-0.089,-0.083,-0.078,0.031
-0.152,0.070,0.221,0.041,-0.187,0.145,-0.035,-0.095,-0.091,-0.088,-0.090,0.027
-0.159,0.059,0.218,0.050,-0.189,0.138,-0.035,-0.095,-0.088,-0.093,-0.097,0.025
-0.121,0.093,0.214,0.014,-0.168,0.154,-0.035,-0.095,-0.085,-0.095,-0.094,0.024
-0.040,0.170,0.210,-0.065,-0.125,0.190,-0.035,-0.095,-0.085,-0.090,-0.095,0.020
-0.065,0.141,0.206,-0.039,-0.136,0.174,-0.035,-0.095,-0.085,-0.090,-0.112,0.020
-0.115,0.087,0.202,0.014,-0.159,0.145,-0.032,-0.092,-0.082,-0.090,-0.114,0.017
-0.106,0.092,0.198,0.007,-0.152,0.145,-0.029,-0.089,-0.080,-0.090,-0.109,0.014
-0.079,0.116,0.195,-0.019,-0.137,0.156,-0.030,-0.090,-0.080,-0.090,-0.110,0.015
-0.100,0.095,0.195,0.002,-0.148,0.145,-0.030,-0.090,-0.080,-0.090,-0.110,0.015
-0.113,0.077,0.191,0.018,-0.153,0.134,-0.030,-0.086,-0.088,-0.090,-0.110,0.011
-0.119,0.071,0.190,0.024,-0.155,0.130,-0.027,-0.085,-0.095,-0.093,-0.111,0.009
-0.118,0.070,0.188,0.024,-0.153,0.129,-0.024,-0.085,-0.093,-0.096,-0.108,0.011
-0.115,0.070,0.185,0.022,-0.150,0.127,-0.025,-0.085,-0.100,-0.104,-0.105,0.009
-0.115,0.070,0.185,0.022,-0.150,0.127,-0.025,-0.085,-0.125,-0.120,-0.105,0.005
-0.110,0.070,0.181,0.020,-0.146,0.126,-0.025,-0.081,-0.122,-0.117,-0.105,0.005
-0.113,0.067,0.180,0.023,-0.147,0.123,-0.022,-0.080,-0.119,-0.114,-0.105,0.005
-0.114,0.064,0.178,0.024,-0.146,0.121,-0.019,-0.080,-0.118,-0.116,-0.105,0.005
-0.110,0.065,0.175,0.022,-0.143,0.120,-0.020,-0.080,-0.115,-0.114,-0.105,0.004
-0.110,0.065,0.175,0.022,-0.143,0.120,-0.020,-0.080,-0.115,-0.110,-0.105,0.000
-0.106,0.065,0.171,0.020,-0.139,0.117,-0.020,-0.076,-0.111,-0.110,-0.101,0.000
-0.105,0.066,0.170,0.020,-0.138,0.117,-0.021,-0.074,-0.110,-0.111,-0.100,0.001
-0.105,0.063,0.168,0.021,-0.137,0.115,-0.018,-0.076,-0.108,-0.108,-0.100,-0.002
-0.105,0.060,0.164,0.022,-0.135,0.111,-0.015,-0.074,-0.105,-0.105,-0.100,-0.005
-0.105,0.060,0.165,0.022,-0.135,0.112,-0.015,-0.070,-0.105,-0.105,-0.100,-0.005
-0.109,0.060,0.169,0.024,-0.139,0.114,-0.015,-0.070,-0.101,-0.105,-0.100,-0.005
-0.113,0.060,0.173,0.026,-0.143,0.117,-0.016,-0.070,-0.100,-0.105,-0.097,-0.006
-0.102,0.059,0.161,0.021,-0.131,0.110,-0.013,-0.070,-0.098,-0.103,-0.094,-0.001
-0.108,0.062,0.169,0.023,-0.139,0.115,-0.010,-0.069,-0.095,-0.100,-0.095,0.006
-0.155,0.065,0.220,0.045,-0.188,0.142,-0.010,-0.065,-0.095,-0.100,-0.095,0.010
-0.156,0.062,0.218,0.047,-0.187,0.140,-0.010,-0.065,-0.095,-0.100,-0.095,0.018
-0.093,0.120,0.213,-0.014,-0.153,0.166,-0.011,-0.066,-0.095,-0.097,-0.095,0.026
-0.075,0.140,0.216,-0.033,-0.146,0.178,-0.007,-0.062,-0.095,-0.094,-0.094,0.019
-0.120,0.095,0.215,0.012,-0.168,0.155,-0.016,-0.071,-0.096,-0.095,-0.097,0.001
-0.145,0.070,0.215,0.037,-0.180,0.142,-0.035,-0.085,-0.095,-0.095,-0.105,-0.010
-0.158,0.057,0.215,0.050,-0.187,0.136,0.003,-0.036,-0.079,-0.091,-0.106,-0.022
-0.163,0.049,0.212,0.057,-0.188,0.130,0.044,0.019,-0.065,-0.090,-0.135,-0.033
-0.170,0.040,0.210,0.065,-0.190,0.124,0.076,0.076,-0.038,-0.089,-0.153,-0.050
-0.184,0.026,0.210,0.079,-0.197,0.118,0.126,0.148,0.006,-0.092,-0.150,-0.060
-0.190,0.020,0.210,0.085,-0.200,0.115,0.185,0.210,0.040,-0.090,-0.150,-0.055
-0.163,0.048,0.211,0.058,-0.187,0.130,0.200,0.247,0.056,-0.054,-0.119,-0.058
-0.102,0.102,0.203,0.000,-0.153,0.152,0.236,0.323,0.120,-0.026,-0.088,-0.029
-0.077,0.156,0.233,-0.039,-0.155,0.194,0.276,0.425,0.223,0.033,-0.044,0.016
-0.056,0.201,0.257,-0.073,-0.156,0.229,0.293,0.526,0.334,0.127,0.022,0.055
0.025,0.255,0.230,-0.140,-0.103,0.242,0.310,0.640,0.470,0.230,0.100,0.110
0.044,0.338,0.294,-0.191,-0.125,0.316,0.333,0.757,0.653,0.398,0.214,0.198
0.029,0.424,0.395,-0.227,-0.183,0.409,0.323,0.790,0.798,0.546,0.338,0.281
0.092,0.555,0.463,-0.324,-0.186,0.509,0.299,0.799,0.945,0.711,0.481,0.380
0.185,0.700,0.515,-0.442,-0.165,0.608,0.279,0.834,1.144,0.926,0.648,0.508
0.225,0.815,0.590,-0.520,-0.183,0.702,0.230,0.845,1.360,1.145,0.820,0.640
0.331,0.999,0.668,-0.665,-0.169,0.833,0.113,0.793,1.545,1.350,0.993,0.766
0.388,1.158,0.770,-0.773,-0.191,0.964,-0.048,0.719,1.729,1.585,1.192,0.912
0.388,1.312,0.924,-0.850,-0.268,1.118,-0.207,0.602,1.884,1.814,1.393,1.064
0.403,1.478,1.075,-0.941,-0.336,1.276,-0.350,0.375,1.924,1.960,1.545,1.185
0.415,1.530,1.115,-0.973,-0.350,1.322,-0.450,0.105,1.850,1.990,1.580,1.215
0.327,1.364,1.037,-0.846,-0.355,1.200,-0.436,0.006,1.791,1.935,1.461,1.103
0.271,1.237,0.966,-0.754,-0.347,1.101,-0.402,-0.088,1.659,1.803,1.330,0.993
0.228,1.123,0.896,-0.676,-0.334,1.009,-0.410,-0.240,1.366,1.553,1.169,0.885
0.149,0.949,0.801,-0.549,-0.326,0.875,-0.416,-0.370,0.980,1.221,0.948,0.743
0.060,0.750,0.690,-0.405,-0.315,0.720,-0.380,-0.435,0.595,0.865,0.700,0.585
-0.021,0.524,0.545,-0.252,-0.283,0.534,-0.356,-0.481,0.163,0.446,0.413,0.404
-0.063,0.361,0.424,-0.149,-0.244,0.392,-0.283,-0.430,-0.202,0.055,0.169,0.242
-0.118,0.242,0.360,-0.063,-0.239,0.301,-0.177,-0.299,-0.381,-0.169,0.015,0.150
-0.101,0.171,0.272,-0.035,-0.187,0.221,-0.093,-0.156,-0.378,-0.209,-0.057,0.101
0.000,0.135,0.135,-0.068,-0.068,0.135,-0.040,-0.025,-0.290,-0.175,-0.085,0.045
-0.120,0.013,0.133,0.054,-0.126,0.072,0.013,0.108,-0.198,-0.150,-0.113,0.035
-0.197,-0.053,0.144,0.125,-0.170,0.045,0.086,0.228,-0.138,-0.130,-0.136,0.030
-0.190,-0.052,0.139,0.121,-0.164,0.043,0.126,0.293,-0.090,-0.109,-0.138,0.021
-0.184,-0.043,0.140,0.114,-0.161,0.048,0.134,0.316,-0.045,-0.091,-0.128,0.013
-0.175,-0.035,0.140,0.105,-0.157,0.052,0.150,0.335,-0.010,-0.080,-0.120,0.005
-0.153,-0.012,0.141,0.082,-0.146,0.064,0.139,0.312,0.025,-0.072,-0.112,-0.003
-0.123,0.015,0.137,0.054,-0.130,0.076,0.128,0.290,0.030,-0.065,-0.104,-0.009
-0.118,0.031,0.149,0.043,-0.134,0.090,0.121,0.264,0.024,-0.054,-0.096,-0.009
-0.124,0.044,0.168,0.039,-0.146,0.106,0.113,0.226,0.025,-0.043,-0.088,-0.004
-0.100,0.070,0.170,0.015,-0.135,0.120,0.105,0.195,0.025,-0.035,-0.080,0.000
-0.068,0.101,0.170,-0.017,-0.119,0.136,0.097,0.178,0.025,-0.027,-0.076,0.000
-0.037,0.135,0.172,-0.049,-0.105,0.153,0.089,0.164,0.026,-0.021,-0.072,0.003
-0.019,0.146,0.165,-0.063,-0.092,0.155,0.082,0.144,0.023,-0.020,-0.070,0.005
-0.041,0.139,0.180,-0.049,-0.110,0.159,0.080,0.119,0.020,-0.020,-0.069,0.005
-0.090,0.140,0.230,-0.025,-0.160,0.185,0.080,0.095,0.020,-0.020,-0.065,0.010
-0.092,0.140,0.233,-0.024,-0.162,0.186,0.076,0.067,0.020,-0.020,-0.065,0.015
-0.089,0.140,0.229,-0.026,-0.159,0.184,0.074,0.039,0.020,-0.017,-0.063,0.015
-0.090,0.140,0.230,-0.025,-0.160,0.185,0.076,0.028,0.020,-0.014,-0.057,0.017
-0.090,0.140,0.230,-0.025,-0.160,0.185,0.074,0.031,0.020,-0.015,-0.055,0.020
-0.090,0.140,0.230,-0.025,-0.160,0.185,0.070,0.030,0.020,-0.015,-0.055,0.020
-0.090,0.140,0.230,-0.025,-0.160,0.185,0.070,0.030,0.016,-0.015,-0.051,0.032
-0.093,0.137,0.230,-0.022,-0.162,0.183,0.067,0.030,0.015,-0.012,-0.050,0.039
-0.096,0.134,0.230,-0.019,-0.163,0.182,0.064,0.030,0.015,-0.009,-0.048,0.042
-0.095,0.135,0.230,-0.020,-0.163,0.182,0.065,0.030,0.015,-0.010,-0.045,0.046
-0.095,0.135,0.230,-0.020,-0.163,0.182,0.065,0.030,0.015,-0.010,-0.045,0.050
-0.095,0.135,0.230,-0.020,-0.163,0.182,0.061,0.026,0.015,-0.010,-0.045,0.050
-0.095,0.135,0.230,-0.020,-0.163,0.182,0.059,0.025,0.012,-0.011,-0.046,0.050
-0.094,0.136,0.230,-0.021,-0.162,0.183,0.061,0.025,0.009,-0.008,-0.043,0.050
-0.098,0.132,0.230,-0.017,-0.164,0.181,0.059,0.025,0.010,-0.005,-0.040,0.050
-0.095,0.135,0.230,-0.020,-0.163,0.182,0.055,0.025,0.010,-0.005,-0.040,0.050
-0.043,0.186,0.229,-0.071,-0.137,0.207,0.055,0.025,0.010,-0.005,-0.040,0.050
-0.039,0.197,0.236,-0.079,-0.137,0.216,0.056,0.025,0.011,-0.006,-0.041,0.050
-0.024,0.188,0.211,-0.082,-0.117,0.199,0.053,0.025,0.007,-0.003,-0.038,0.050
-0.012,0.191,0.202,-0.090,-0.107,0.196,0.050,0.025,0.016,0.000,-0.035,0.050
-0.065,0.190,0.255,-0.063,-0.160,0.222,0.050,0.025,0.040,0.000,-0.035,0.050
-0.064,0.190,0.254,-0.063,-0.159,0.222,0.050,0.025,0.030,0.000,-0.035,0.048
-0.057,0.191,0.248,-0.067,-0.153,0.219,0.050,0.025,0.046,0.000,-0.035,0.063
-0.062,0.188,0.251,-0.063,-0.157,0.219,0.050,0.025,0.066,0.000,-0.035,0.070
-0.065,0.185,0.250,-0.060,-0.158,0.217,0.050,0.024,0.065,0.000,-0.034,0.064
-0.065,0.185,0.250,-0.060,-0.158,0.217,0.050,0.020,0.065,0.000,-0.030,0.065
-0.061,0.185,0.246,-0.063,-0.154,0.215,0.050,0.020,0.065,0.000,-0.030,0.066
-0.060,0.185,0.245,-0.063,-0.153,0.215,0.050,0.020,0.068,0.001,-0.030,0.062
-0.060,0.185,0.245,-0.063,-0.153,0.215,0.050,0.020,0.070,-0.003,-0.030,0.059
-0.060,0.185,0.245,-0.063,-0.153,0.215,0.050,0.020,0.070,0.005,-0.029,0.060
-0.060,0.185,0.245,-0.063,-0.153,0.215,0.050,0.020,0.070,0.030,-0.025,0.060
-0.060,0.185,0.245,-0.063,-0.153,0.215,0.050,0.020,0.066,0.031,-0.025,0.056
-0.057,0.185,0.242,-0.064,-0.150,0.213,0.050,0.020,0.064,0.029,-0.025,0.055
-0.054,0.185,0.239,-0.065,-0.147,0.212,0.050,0.020,0.065,0.030,-0.025,0.055
-0.055,0.185,0.240,-0.065,-0.148,0.212,0.050,0.020,0.064,0.030,-0.025,0.055
-0.055,0.185,0.240,-0.065,-0.148,0.212,0.050,0.020,0.065,0.030,-0.025,0.055
-0.054,0.185,0.239,-0.066,-0.147,0.211,0.050,0.019,0.077,0.030,-0.021,0.059
-0.060,0.185,0.245,-0.062,-0.153,0.215,0.050,0.023,0.085,0.031,-0.017,0.060
-0.038,0.185,0.223,-0.074,-0.131,0.203,0.050,0.011,0.085,0.028,-0.013,0.062
-0.033,0.185,0.218,-0.076,-0.126,0.201,0.050,0.009,0.095,0.034,-0.010,0.074
-0.090,0.185,0.275,-0.048,-0.183,0.230,0.050,0.040,0.115,0.055,-0.010,0.090
-0.089,0.185,0.274,-0.048,-0.182,0.229,0.046,0.046,0.112,0.048,-0.006,0.095
-0.083,0.185,0.268,-0.051,-0.176,0.226,0.045,0.045,0.106,0.041,-0.001,0.095
-0.084,0.185,0.269,-0.051,-0.177,0.226,0.045,0.045,0.103,0.039,0.000,0.095
-0.079,0.185,0.265,-0.053,-0.173,0.225,0.045,0.046,0.099,0.033,0.001,0.095
-0.080,0.185,0.265,-0.053,-0.173,0.225,0.045,0.050,0.100,0.030,0.005,0.095
-0.077,0.184,0.261,-0.053,-0.170,0.222,0.045,0.050,0.119,0.049,0.010,0.095
-0.066,0.194,0.259,-0.064,-0.163,0.226,0.042,0.053,0.141,0.071,0.010,0.095
-0.057,0.204,0.261,-0.073,-0.159,0.232,0.039,0.041,0.142,0.072,0.012,0.095
-0.054,0.205,0.259,-0.075,-0.157,0.232,0.040,0.040,0.145,0.073,0.015,0.095
-0.050,0.205,0.255,-0.078,-0.153,0.230,0.040,0.075,0.175,0.095,0.015,0.095
-0.046,0.209,0.255,-0.082,-0.151,0.232,0.040,0.081,0.180,0.100,0.019,0.095
-0.041,0.211,0.252,-0.085,-0.146,0.231,0.040,0.080,0.182,0.099,0.020,0.095
-0.042,0.208,0.250,-0.083,-0.146,0.229,0.040,0.080,0.188,0.102,0.022,0.095
-0.045,0.205,0.249,-0.080,-0.148,0.226,0.039,0.081,0.190,0.105,0.025,0.095
-0.040,0.205,0.245,-0.083,-0.143,0.225,0.035,0.085,0.190,0.105,0.025,0.095
-0.039,0.206,0.245,-0.084,-0.142,0.225,0.035,0.085,0.198,0.109,0.030,0.095
-0.044,0.202,0.245,-0.079,-0.145,0.224,0.035,0.085,0.202,0.109,0.028,0.093
-0.028,0.217,0.245,-0.095,-0.137,0.231,0.035,0.086,0.213,0.115,0.039,0.102
-0.018,0.237,0.255,-0.109,-0.137,0.245,0.035,0.102,0.236,0.136,0.059,0.118
-0.050,0.230,0.280,-0.090,-0.165,0.255,0.035,0.130,0.255,0.160,0.065,0.125
-0.058,0.231,0.289,-0.086,-0.174,0.260,0.031,0.132,0.259,0.166,0.070,0.130
-0.072,0.221,0.293,-0.075,-0.182,0.257,0.030,0.125,0.267,0.160,0.070,0.128
-0.067,0.230,0.297,-0.082,-0.182,0.263,0.030,0.144,0.302,0.181,0.087,0.139
-0.020,0.280,0.300,-0.130,-0.161,0.290,0.030,0.168,0.333,0.208,0.107,0.158
0.030,0.330,0.300,-0.180,-0.135,0.315,0.030,0.160,0.325,0.200,0.100,0.160
0.029,0.328,0.299,-0.179,-0.135,0.313,0.029,0.153,0.322,0.198,0.099,0.159
0.019,0.323,0.304,-0.171,-0.143,0.313,0.033,0.168,0.345,0.209,0.106,0.164
0.039,0.326,0.286,-0.183,-0.124,0.306,0.020,0.176,0.357,0.220,0.113,0.163
0.044,0.325,0.281,-0.185,-0.119,0.303,0.021,0.195,0.375,0.244,0.133,0.170
0.000,0.325,0.325,-0.163,-0.163,0.325,0.060,0.245,0.425,0.285,0.170,0.200
-0.003,0.325,0.328,-0.162,-0.166,0.327,0.058,0.248,0.422,0.296,0.176,0.205
0.003,0.324,0.321,-0.164,-0.160,0.323,0.051,0.243,0.430,0.294,0.175,0.207
-0.005,0.329,0.334,-0.162,-0.170,0.331,0.049,0.246,0.462,0.313,0.189,0.214
-0.010,0.336,0.346,-0.164,-0.178,0.341,0.044,0.244,0.482,0.331,0.201,0.221
0.005,0.345,0.340,-0.175,-0.168,0.342,0.040,0.245,0.485,0.330,0.200,0.225
0.029,0.369,0.340,-0.199,-0.156,0.354,0.040,0.265,0.505,0.351,0.218,0.230
0.020,0.358,0.338,-0.190,-0.159,0.348,0.037,0.276,0.518,0.355,0.216,0.228
0.054,0.385,0.331,-0.220,-0.139,0.357,0.033,0.272,0.523,0.362,0.224,0.238
0.095,0.437,0.342,-0.267,-0.123,0.389,0.029,0.281,0.542,0.387,0.251,0.260
0.060,0.435,0.375,-0.248,-0.158,0.405,0.025,0.310,0.570,0.410,0.265,0.275
0.061,0.438,0.377,-0.250,-0.158,0.407,0.021,0.311,0.579,0.423,0.273,0.279
0.070,0.444,0.374,-0.257,-0.152,0.409,0.020,0.309,0.587,0.432,0.284,0.289
0.070,0.446,0.375,-0.258,-0.153,0.411,0.020,0.310,0.606,0.437,0.295,0.298
0.069,0.444,0.375,-0.257,-0.153,0.410,0.020,0.310,0.623,0.441,0.302,0.301
0.060,0.435,0.375,-0.248,-0.158,0.405,0.020,0.310,0.625,0.445,0.305,0.305
0.047,0.422,0.375,-0.235,-0.164,0.398,0.020,0.308,0.629,0.443,0.299,0.313
0.078,0.455,0.377,-0.267,-0.150,0.416,0.020,0.324,0.634,0.461,0.315,0.318
0.115,0.483,0.368,-0.299,-0.127,0.425,0.020,0.328,0.633,0.472,0.329,0.323
0.118,0.488,0.370,-0.303,-0.127,0.429,0.020,0.329,0.639,0.481,0.340,0.332
0.105,0.505,0.400,-0.305,-0.148,0.452,0.020,0.355,0.660,0.510,0.365,0.340
0.104,0.502,0.398,-0.304,-0.147,0.449,0.020,0.349,0.653,0.508,0.362,0.345
0.106,0.496,0.390,-0.301,-0.143,0.443,0.020,0.338,0.646,0.501,0.359,0.343
0.103,0.493,0.390,-0.298,-0.144,0.442,0.020,0.331,0.641,0.498,0.358,0.337
0.100,0.489,0.389,-0.294,-0.145,0.439,0.020,0.323,0.634,0.494,0.355,0.335
0.100,0.485,0.385,-0.293,-0.143,0.435,0.020,0.315,0.630,0.490,0.355,0.335
0.100,0.485,0.385,-0.293,-0.143,0.435,0.020,0.307,0.622,0.485,0.351,0.331
0.100,0.482,0.383,-0.291,-0.141,0.433,0.020,0.302,0.618,0.487,0.350,0.330
0.100,0.478,0.377,-0.289,-0.139,0.428,0.020,0.297,0.608,0.478,0.347,0.329
0.099,0.474,0.375,-0.287,-0.138,0.424,0.020,0.288,0.592,0.462,0.338,0.324
0.095,0.470,0.375,-0.283,-0.140,0.422,0.020,0.280,0.580,0.450,0.330,0.320
0.094,0.465,0.371,-0.280,-0.138,0.417,0.020,0.272,0.556,0.434,0.321,0.320
0.097,0.467,0.371,-0.282,-0.138,0.418,0.020,0.265,0.533,0.422,0.319,0.317
0.089,0.456,0.367,-0.272,-0.139,0.411,0.020,0.253,0.505,0.403,0.305,0.315
0.070,0.428,0.359,-0.249,-0.145,0.393,0.020,0.236,0.472,0.373,0.278,0.314
0.055,0.410,0.355,-0.233,-0.150,0.382,0.020,0.220,0.440,0.350,0.255,0.305
0.053,0.399,0.347,-0.227,-0.147,0.373,0.019,0.205,0.412,0.328,0.236,0.301
0.011,0.353,0.342,-0.182,-0.166,0.347,0.030,0.182,0.384,0.295,0.210,0.293
0.111,0.447,0.336,-0.279,-0.112,0.392,0.066,0.194,0.355,0.303,0.229,0.290
0.163,0.492,0.329,-0.328,-0.083,0.410,0.092,0.213,0.322,0.316,0.253,0.280
-0.045,0.280,0.325,-0.118,-0.185,0.302,0.080,0.175,0.290,0.265,0.205,0.245
-0.010,0.303,0.313,-0.147,-0.162,0.308,0.075,0.145,0.265,0.218,0.162,0.211
0.016,0.319,0.303,-0.168,-0.144,0.311,0.073,0.127,0.245,0.193,0.141,0.191
-0.008,0.288,0.297,-0.140,-0.153,0.292,0.066,0.114,0.223,0.178,0.130,0.179
-0.010,0.277,0.287,-0.133,-0.149,0.282,0.059,0.101,0.199,0.159,0.115,0.166
-0.015,0.260,0.275,-0.123,-0.145,0.267,0.055,0.085,0.175,0.135,0.090,0.150
-0.023,0.244,0.267,-0.111,-0.145,0.255,0.049,0.072,0.151,0.115,0.065,0.137
-0.028,0.231,0.259,-0.102,-0.144,0.245,0.063,0.064,0.129,0.092,0.050,0.129
-0.032,0.219,0.251,-0.094,-0.142,0.235,0.070,0.056,0.112,0.069,0.039,0.121
-0.036,0.207,0.243,-0.086,-0.139,0.224,0.064,0.048,0.096,0.051,0.027,0.113
-0.040,0.195,0.235,-0.078,-0.138,0.215,0.065,0.040,0.080,0.040,0.015,0.105
-0.045,0.187,0.231,-0.071,-0.138,0.208,0.066,0.032,0.064,0.032,0.007,0.097
-0.043,0.182,0.225,-0.069,-0.134,0.203,0.062,0.024,0.051,0.025,-0.004,0.089
-0.037,0.178,0.215,-0.070,-0.127,0.197,0.059,0.016,0.039,0.014,-0.014,0.081
-0.035,0.174,0.209,-0.070,-0.122,0.191,0.060,0.008,0.028,0.003,-0.023,0.074
-0.035,0.170,0.205,-0.068,-0.120,0.187,0.060,0.000,0.020,-0.005,-0.035,0.070
-0.031,0.170,0.201,-0.070,-0.116,0.185,0.056,-0.008,0.012,-0.013,-0.043,0.066
-0.032,0.168,0.200,-0.068,-0.116,0.183,0.054,-0.013,0.001,-0.024,-0.054,0.062
-0.038,0.162,0.200,-0.062,-0.119,0.181,0.056,-0.018,-0.010,-0.035,-0.065,0.058
-0.040,0.160,0.200,-0.060,-0.120,0.180,0.054,-0.027,-0.016,-0.042,-0.071,0.055
-0.040,0.160,0.200,-0.060,-0.120,0.180,0.050,-0.035,-0.025,-0.050,-0.075,0.055
-0.044,0.156,0.200,-0.056,-0.122,0.178,0.050,-0.039,-0.042,-0.058,-0.075,0.051
-0.049,0.151,0.200,-0.051,-0.125,0.175,0.051,-0.040,-0.050,-0.064,-0.075,0.047
-0.050,0.150,0.200,-0.050,-0.125,0.175,0.048,-0.040,-0.050,-0.065,-0.075,0.043
-0.051,0.149,0.200,-0.049,-0.126,0.174,0.045,-0.040,-0.051,-0.065,-0.076,0.039
-0.060,0.140,0.200,-0.040,-0.130,0.170,0.045,-0.040,-0.055,-0.065,-0.080,0.035
-0.069,0.131,0.200,-0.031,-0.134,0.166,0.045,-0.039,-0.055,-0.065,-0.080,0.035
-0.073,0.127,0.200,-0.027,-0.137,0.163,0.042,-0.050,-0.058,-0.068,-0.080,0.032
-0.078,0.122,0.200,-0.022,-0.140,0.160,0.039,-0.055,-0.060,-0.072,-0.080,0.029
-0.087,0.113,0.200,-0.013,-0.144,0.156,0.040,-0.049,-0.061,-0.075,-0.080,0.030
-0.095,0.105,0.200,-0.005,-0.148,0.152,0.040,-0.050,-0.065,-0.075,-0.080,0.030
-0.100,0.100,0.200,0.000,-0.150,0.150,0.040,-0.050,-0.065,-0.075,-0.084,0.030
-0.097,0.103,0.200,-0.003,-0.149,0.151,0.040,-0.050,-0.068,-0.078,-0.085,0.030
-0.094,0.106,0.200,-0.006,-0.148,0.152,0.040,-0.050,-0.071,-0.081,-0.085,0.030
-0.095,0.105,0.200,-0.005,-0.148,0.152,0.040,-0.050,-0.069,-0.080,-0.085,0.030
-0.095,0.105,0.200,-0.005,-0.148,0.152,0.040,-0.050,-0.065,-0.080,-0.085,0.030
-0.095,0.105,0.200,-0.005,-0.148,0.152,0.040,-0.050,-0.065,-0.088,-0.085,0.030
-0.095,0.105,0.200,-0.005,-0.148,0.152,0.040,-0.050,-0.066,-0.094,-0.082,0.030
-0.095,0.105,0.200,-0.005,-0.148,0.152,0.040,-0.050,-0.063,-0.093,-0.079,0.030
-0.095,0.105,0.200,-0.005,-0.148,0.152,0.040,-0.050,-0.060,-0.089,-0.080,0.030
-0.095,0.105,0.200,-0.005,-0.148,0.152,0.040,-0.050,-0.060,-0.090,-0.080,0.030
-0.091,0.109,0.200,-0.009,-0.145,0.154,0.040,-0.050,-0.060,-0.090,-0.080,0.030
-0.090,0.110,0.201,-0.010,-0.145,0.156,0.040,-0.050,-0.061,-0.087,-0.080,0.030
-0.088,0.110,0.198,-0.011,-0.143,0.154,0.040,-0.050,-0.058,-0.085,-0.080,0.030
-0.085,0.110,0.195,-0.013,-0.140,0.152,0.040,-0.050,-0.055,-0.085,-0.080,0.030
-0.085,0.110,0.195,-0.013,-0.140,0.152,0.040,-0.050,-0.055,-0.085,-0.080,0.030
-0.085,0.110,0.195,-0.013,-0.140,0.152,0.040,-0.050,-0.055,-0.085,-0.076,0.030
-0.086,0.110,0.196,-0.013,-0.141,0.152,0.040,-0.050,-0.055,-0.082,-0.075,0.030
-0.082,0.111,0.193,-0.014,-0.138,0.152,0.040,-0.050,-0.053,-0.079,-0.075,0.030
-0.081,0.109,0.190,-0.014,-0.135,0.149,0.040,-0.050,-0.050,-0.080,-0.075,0.030
-0.090,0.100,0.190,-0.005,-0.140,0.145,0.040,-0.050,-0.050,-0.080,-0.075,0.030
-0.098,0.092,0.190,0.003,-0.144,0.141,0.040,-0.050,-0.050,-0.076,-0.075,0.030
-0.106,0.084,0.190,0.011,-0.148,0.137,0.041,-0.050,-0.047,-0.074,-0.075,0.030
-0.115,0.075,0.190,0.020,-0.153,0.133,0.036,-0.050,-0.045,-0.076,-0.075,0.030
-0.120,0.069,0.189,0.025,-0.154,0.129,0.030,-0.050,-0.045,-0.074,-0.074,0.029
-0.125,0.060,0.185,0.032,-0.155,0.122,0.025,-0.050,-0.045,-0.075,-0.070,0.025
-0.141,0.043,0.185,0.048,-0.164,0.114,0.007,-0.054,-0.045,-0.092,-0.070,0.025
-0.045,0.140,0.185,-0.048,-0.115,0.162,0.043,-0.055,-0.042,-0.093,-0.070,0.025
0.014,0.199,0.185,-0.107,-0.086,0.192,0.069,-0.055,-0.039,-0.089,-0.070,0.025
-0.015,0.169,0.184,-0.078,-0.100,0.177,0.058,-0.055,-0.040,-0.089,-0.070,0.025
-0.015,0.165,0.180,-0.075,-0.098,0.172,0.060,-0.055,-0.040,-0.085,-0.070,0.025
-0.027,0.153,0.180,-0.063,-0.103,0.166,0.061,-0.055,-0.040,-0.085,-0.070,0.025
-0.036,0.144,0.180,-0.054,-0.108,0.162,0.057,-0.055,-0.040,-0.086,-0.070,0.025
-0.045,0.135,0.180,-0.045,-0.113,0.157,0.055,-0.055,-0.040,-0.083,-0.070,0.025
-0.058,0.122,0.180,-0.032,-0.120,0.150,0.055,-0.055,-0.040,-0.080,-0.069,0.025
-0.065,0.115,0.180,-0.025,-0.123,0.147,0.055,-0.055,-0.040,-0.080,-0.065,0.025
-0.064,0.119,0.183,-0.028,-0.124,0.151,0.055,-0.055,-0.040,-0.076,-0.065,0.025
-0.071,0.120,0.191,-0.024,-0.131,0.156,0.052,-0.055,-0.040,-0.075,-0.065,0.025
-0.059,0.122,0.181,-0.032,-0.120,0.151,0.049,-0.055,-0.040,-0.075,-0.065,0.025
-0.056,0.125,0.181,-0.035,-0.119,0.153,0.050,-0.055,-0.040,-0.075,-0.065,0.025
-0.095,0.125,0.220,-0.015,-0.158,0.172,0.050,-0.055,-0.040,-0.075,-0.065,0.025
-0.089,0.129,0.218,-0.020,-0.153,0.173,0.046,-0.055,-0.040,-0.075,-0.065,0.025
-0.082,0.131,0.213,-0.025,-0.148,0.172,0.045,-0.055,-0.040,-0.075,-0.065,0.025
-0.088,0.128,0.215,-0.021,-0.152,0.171,0.045,-0.055,-0.040,-0.075,-0.065,0.025
-0.090,0.125,0.215,-0.018,-0.153,0.170,0.045,-0.055,-0.040,-0.075,-0.065,0.025
-0.090,0.125,0.215,-0.018,-0.153,0.170,0.045,-0.055,-0.040,-0.075,-0.065,0.025
-0.090,0.121,0.211,-0.015,-0.151,0.166,0.041,-0.055,-0.040,-0.075,-0.061,0.025
-0.089,0.120,0.210,-0.015,-0.149,0.165,0.040,-0.055,-0.040,-0.075,-0.060,0.025
-0.092,0.118,0.210,-0.013,-0.151,0.164,0.040,-0.055,-0.040,-0.075,-0.060,0.025
-0.095,0.115,0.210,-0.010,-0.153,0.162,0.040,-0.055,-0.040,-0.075,-0.060,0.025
-0.095,0.115,0.210,-0.010,-0.153,0.162,0.040,-0.055,-0.040,-0.075,-0.060,0.025
-0.095,0.111,0.206,-0.008,-0.151,0.158,0.036,-0.055,-0.040,-0.075,-0.060,0.025
-0.095,0.110,0.205,-0.008,-0.149,0.157,0.034,-0.056,-0.040,-0.075,-0.060,0.022
-0.097,0.108,0.205,-0.006,-0.151,0.156,0.036,-0.052,-0.040,-0.075,-0.060,0.019
-0.101,0.104,0.205,-0.002,-0.153,0.155,0.034,-0.043,-0.040,-0.075,-0.060,0.020
-0.100,0.105,0.205,-0.003,-0.153,0.155,0.030,-0.040,-0.045,-0.075,-0.060,0.020
-0.091,0.114,0.205,-0.012,-0.148,0.159,0.030,-0.037,-0.048,-0.075,-0.062,0.016
-0.056,0.145,0.202,-0.045,-0.129,0.173,0.030,-0.026,-0.028,-0.075,-0.049,0.014
-0.052,0.148,0.199,-0.048,-0.126,0.173,0.030,-0.048,-0.040,-0.075,-0.065,0.016
-0.107,0.093,0.200,0.007,-0.154,0.146,0.029,-0.085,-0.075,-0.075,-0.093,0.014
-0.135,0.065,0.200,0.035,-0.168,0.132,0.025,-0.085,-0.075,-0.075,-0.085,0.010
-0.039,0.161,0.200,-0.061,-0.120,0.181,0.025,-0.085,-0.075,-0.075,-0.084,0.010
-0.017,0.180,0.197,-0.082,-0.107,0.188,0.025,-0.085,-0.075,-0.075,-0.085,0.011
-0.047,0.148,0.194,-0.051,-0.121,0.171,0.025,-0.085,-0.075,-0.075,-0.085,0.008
-0.058,0.137,0.195,-0.040,-0.127,0.166,0.024,-0.085,-0.075,-0.075,-0.085,0.005
-0.075,0.120,0.195,-0.023,-0.135,0.157,0.020,-0.085,-0.075,-0.075,-0.085,0.005
-0.092,0.103,0.195,-0.006,-0.143,0.148,0.020,-0.085,-0.079,-0.075,-0.085,0.005
-0.100,0.095,0.196,0.002,-0.148,0.145,0.021,-0.084,-0.080,-0.078,-0.085,0.002
-0.098,0.095,0.193,0.001,-0.146,0.144,0.018,-0.087,-0.080,-0.080,-0.085,-0.001
-0.096,0.094,0.190,0.001,-0.143,0.141,0.015,-0.090,-0.080,-0.081,-0.085,0.000
-0.095,0.095,0.190,0.000,-0.143,0.142,0.015,-0.090,-0.080,-0.085,-0.085,0.000
-0.084,0.102,0.186,-0.009,-0.136,0.144,0.015,-0.090,-0.078,-0.083,-0.086,-0.004
-0.130,0.055,0.184,0.037,-0.157,0.119,0.016,-0.090,-0.096,-0.097,-0.077,-0.006
-0.096,0.090,0.186,0.002,-0.141,0.137,0.013,-0.090,-0.106,-0.107,-0.064,-0.004
-0.009,0.175,0.184,-0.083,-0.097,0.179,0.010,-0.090,-0.099,-0.105,-0.062,-0.006
-0.025,0.155,0.180,-0.065,-0.103,0.167,0.010,-0.090,-0.100,-0.105,-0.080,-0.010
-0.035,0.145,0.180,-0.055,-0.108,0.162,0.010,-0.090,-0.100,-0.105,-0.106,-0.010
-0.038,0.143,0.181,-0.053,-0.109,0.162,0.010,-0.093,-0.100,-0.105,-0.115,-0.010
-0.042,0.136,0.178,-0.048,-0.110,0.157,0.010,-0.096,-0.100,-0.105,-0.115,-0.010
-0.047,0.128,0.175,-0.041,-0.111,0.151,0.010,-0.095,-0.100,-0.105,-0.115,-0.011
-0.055,0.120,0.175,-0.033,-0.115,0.147,0.010,-0.095,-0.100,-0.105,-0.115,-0.015
-0.060,0.116,0.176,-0.029,-0.118,0.146,0.010,-0.095,-0.100,-0.105,-0.115,-0.015
-0.060,0.112,0.172,-0.026,-0.116,0.142,0.010,-0.095,-0.100,-0.105,-0.115,-0.014
-0.060,0.109,0.170,-0.024,-0.115,0.140,0.010,-0.095,-0.100,-0.105,-0.115,-0.017
-0.059,0.110,0.169,-0.026,-0.114,0.140,0.010,-0.095,-0.100,-0.105,-0.116,-0.020
-0.055,0.110,0.165,-0.028,-0.110,0.137,0.010,-0.095,-0.100,-0.105,-0.120,-0.020
-0.059,0.106,0.165,-0.024,-0.112,0.135,0.010,-0.095,-0.100,-0.105,-0.120,-0.020
-0.061,0.104,0.166,-0.022,-0.114,0.135,0.010,-0.098,-0.100,-0.105,-0.120,-0.019
-0.058,0.106,0.163,-0.024,-0.111,0.134,0.010,-0.101,-0.101,-0.105,-0.120,-0.022
-0.055,0.104,0.160,-0.024,-0.108,0.131,0.010,-0.100,-0.099,-0.104,-0.120,-0.025
-0.060,0.100,0.160,-0.020,-0.110,0.130,0.010,-0.100,-0.100,-0.105,-0.120,-0.025
-0.061,0.100,0.161,-0.019,-0.111,0.130,0.010,-0.100,-0.120,-0.121,-0.120,-0.025
-0.056,0.101,0.157,-0.023,-0.106,0.128,0.010,-0.100,-0.130,-0.130,-0.123,-0.025
-0.057,0.098,0.155,-0.021,-0.106,0.126,0.010,-0.100,-0.130,-0.130,-0.126,-0.027
-0.060,0.095,0.155,-0.018,-0.108,0.125,0.010,-0.100,-0.130,-0.130,-0.125,-0.030
-0.060,0.095,0.155,-0.018,-0.108,0.125,0.010,-0.100,-0.130,-0.130,-0.125,-0.030
-0.072,0.095,0.167,-0.012,-0.120,0.131,0.010,-0.100,-0.130,-0.130,-0.125,-0.030
-0.082,0.092,0.174,-0.005,-0.129,0.133,0.010,-0.100,-0.130,-0.130,-0.125,-0.033
-0.086,0.089,0.175,-0.002,-0.130,0.132,0.010,-0.100,-0.130,-0.130,-0.125,-0.035
-0.085,0.090,0.175,-0.003,-0.130,0.132,0.010,-0.100,-0.130,-0.130,-0.125,-0.035
-0.085,0.090,0.175,-0.003,-0.130,0.132,0.010,-0.100,-0.130,-0.130,-0.125,-0.035
-0.089,0.086,0.175,0.001,-0.133,0.130,0.010,-0.104,-0.130,-0.130,-0.125,-0.035
-0.091,0.084,0.175,0.003,-0.133,0.130,0.010,-0.105,-0.130,-0.130,-0.125,-0.038
-0.089,0.086,0.175,0.001,-0.133,0.130,0.010,-0.105,-0.130,-0.130,-0.125,-0.041
-0.091,0.084,0.175,0.003,-0.133,0.129,0.010,-0.105,-0.130,-0.130,-0.125,-0.040
-0.095,0.080,0.175,0.007,-0.135,0.127,0.010,-0.105,-0.130,-0.130,-0.125,-0.040
-0.095,0.080,0.175,0.007,-0.135,0.127,0.006,-0.105,-0.134,-0.134,-0.125,-0.040
-0.095,0.080,0.175,0.007,-0.135,0.127,0.005,-0.105,-0.135,-0.135,-0.125,-0.043
-0.095,0.080,0.175,0.007,-0.135,0.127,0.005,-0.105,-0.135,-0.135,-0.125,-0.046
-0.095,0.080,0.175,0.007,-0.135,0.127,0.005,-0.105,-0.135,-0.135,-0.125,-0.045
-0.100,0.075,0.175,0.012,-0.138,0.125,0.005,-0.105,-0.135,-0.135,-0.125,-0.045
-0.103,0.072,0.175,0.015,-0.140,0.123,0.005,-0.105,-0.135,-0.135,-0.125,-0.045
-0.077,0.098,0.175,-0.011,-0.126,0.136,0.005,-0.105,-0.135,-0.135,-0.125,-0.045
-0.065,0.110,0.175,-0.023,-0.120,0.142,0.005,-0.105,-0.135,-0.135,-0.125,-0.045
-0.077,0.098,0.175,-0.011,-0.126,0.136,0.004,-0.106,-0.135,-0.135,-0.125,-0.045
-0.080,0.095,0.175,-0.008,-0.128,0.135,0.000,-0.110,-0.135,-0.135,-0.125,-0.045
-0.083,0.092,0.175,-0.005,-0.129,0.133,0.000,-0.110,-0.135,-0.135,-0.125,-0.045
-0.091,0.084,0.175,0.003,-0.133,0.129,0.000,-0.110,-0.135,-0.135,-0.125,-0.045
-0.097,0.078,0.175,0.009,-0.136,0.126,0.000,-0.110,-0.135,-0.135,-0.125,-0.045
-0.101,0.074,0.175,0.013,-0.138,0.124,0.000,-0.110,-0.134,-0.134,-0.125,-0.045
-0.105,0.070,0.175,0.017,-0.140,0.122,0.000,-0.110,-0.130,-0.130,-0.125,-0.045
-0.103,0.072,0.175,0.015,-0.139,0.124,0.000,-0.110,-0.130,-0.130,-0.125,-0.045
-0.091,0.084,0.175,0.003,-0.134,0.129,0.001,-0.110,-0.130,-0.130,-0.125,-0.045
-0.127,0.048,0.175,0.039,-0.152,0.112,-0.002,-0.110,-0.130,-0.130,-0.125,-0.045
-0.130,0.045,0.174,0.042,-0.152,0.109,-0.005,-0.110,-0.130,-0.130,-0.125,-0.045
-0.035,0.135,0.170,-0.050,-0.103,0.152,-0.005,-0.110,-0.130,-0.130,-0.125,-0.045
-0.057,0.113,0.170,-0.028,-0.113,0.141,-0.005,-0.114,-0.130,-0.130,-0.125,-0.045
-0.093,0.077,0.170,0.008,-0.132,0.123,-0.005,-0.115,-0.130,-0.130,-0.128,-0.045
-0.105,0.065,0.170,0.020,-0.138,0.118,-0.005,-0.115,-0.130,-0.130,-0.131,-0.045
-0.119,0.050,0.169,0.035,-0.145,0.109,-0.005,-0.115,-0.130,-0.130,-0.130,-0.045
-0.120,0.045,0.165,0.037,-0.143,0.105,-0.005,-0.115,-0.130,-0.130,-0.130,-0.045
-0.073,0.092,0.165,-0.010,-0.119,0.128,-0.005,-0.115,-0.130,-0.130,-0.134,-0.045
-0.069,0.096,0.165,-0.014,-0.117,0.130,-0.005,-0.115,-0.131,-0.130,-0.135,-0.045
-0.087,0.079,0.165,0.004,-0.127,0.122,-0.003,-0.115,-0.128,-0.130,-0.135,-0.045
-0.091,0.074,0.164,0.008,-0.128,0.119,0.001,-0.115,-0.125,-0.130,-0.134,-0.044
-0.095,0.065,0.160,0.015,-0.128,0.112,0.005,-0.115,-0.125,-0.130,-0.130,-0.040
-0.103,0.057,0.160,0.023,-0.132,0.108,0.009,-0.115,-0.125,-0.130,-0.130,-0.040
-0.109,0.051,0.160,0.029,-0.135,0.105,0.013,-0.112,-0.125,-0.130,-0.130,-0.041
-0.124,0.036,0.160,0.044,-0.142,0.098,0.017,-0.109,-0.125,-0.130,-0.130,-0.038
-0.118,0.042,0.160,0.038,-0.140,0.101,0.020,-0.110,-0.125,-0.130,-0.129,-0.035
-0.075,0.085,0.160,-0.005,-0.118,0.122,0.020,-0.110,-0.125,-0.130,-0.125,-0.035
-0.064,0.091,0.156,-0.014,-0.110,0.123,0.020,-0.106,-0.125,-0.130,-0.125,-0.035
-0.065,0.089,0.155,-0.012,-0.110,0.121,0.020,-0.105,-0.125,-0.130,-0.125,-0.032
-0.065,0.090,0.155,-0.013,-0.110,0.122,0.020,-0.105,-0.125,-0.130,-0.125,-0.029
-0.065,0.090,0.155,-0.013,-0.110,0.122,0.020,-0.105,-0.125,-0.130,-0.125,-0.030
-0.065,0.090,0.155,-0.013,-0.110,0.122,0.020,-0.105,-0.125,-0.130,-0.125,-0.030
-0.061,0.090,0.151,-0.015,-0.106,0.120,0.020,-0.101,-0.124,-0.130,-0.121,-0.026
-0.059,0.090,0.150,-0.015,-0.104,0.120,0.020,-0.099,-0.129,-0.127,-0.120,-0.024
-0.061,0.090,0.150,-0.014,-0.105,0.120,0.020,-0.101,-0.129,-0.125,-0.120,-0.026
-0.059,0.091,0.150,-0.016,-0.104,0.120,0.020,-0.099,-0.124,-0.124,-0.120,-0.024
-0.055,0.095,0.150,-0.020,-0.103,0.122,0.020,-0.095,-0.125,-0.120,-0.120,-0.020
-0.057,0.095,0.152,-0.019,-0.105,0.123,0.020,-0.095,-0.125,-0.120,-0.116,-0.020
-0.044,0.095,0.139,-0.026,-0.092,0.116,0.020,-0.095,-0.122,-0.117,-0.115,-0.021
-0.063,0.095,0.158,-0.016,-0.111,0.126,0.020,-0.095,-0.119,-0.115,-0.115,-0.018
-0.100,0.095,0.195,0.003,-0.148,0.145,0.020,-0.094,-0.120,-0.114,-0.115,-0.015
-0.100,0.095,0.195,0.002,-0.148,0.145,0.020,-0.090,-0.120,-0.110,-0.115,-0.015
-0.099,0.095,0.195,0.002,-0.148,0.145,0.020,-0.090,-0.112,-0.110,-0.116,-0.015
-0.101,0.094,0.195,0.003,-0.148,0.144,0.021,-0.090,-0.103,-0.107,-0.109,-0.012
-0.098,0.099,0.197,-0.001,-0.148,0.148,0.015,-0.090,-0.098,-0.104,-0.102,-0.009
-0.095,0.106,0.201,-0.005,-0.148,0.153,0.011,-0.089,-0.094,-0.105,-0.099,-0.010
-0.090,0.110,0.200,-0.010,-0.145,0.155,0.025,-0.085,-0.085,-0.105,-0.095,-0.010
-0.071,0.128,0.199,-0.028,-0.135,0.163,0.033,-0.085,-0.076,-0.105,-0.091,-0.009
-0.083,0.124,0.207,-0.021,-0.146,0.166,0.040,-0.082,-0.074,-0.105,-0.088,-0.016
-0.117,0.107,0.224,0.004,-0.171,0.165,0.050,-0.080,-0.060,-0.105,-0.081,-0.023
-0.138,0.099,0.237,0.019,-0.188,0.168,0.055,-0.079,-0.061,-0.105,-0.083,-0.026
-0.155,0.085,0.240,0.035,-0.198,0.162,0.050,-0.075,-0.095,-0.105,-0.100,-0.030
-0.183,0.057,0.240,0.063,-0.212,0.148,0.050,-0.075,-0.093,-0.106,-0.093,-0.035
-0.064,0.175,0.239,-0.056,-0.152,0.207,0.051,-0.072,-0.086,-0.100,-0.086,-0.030
0.012,0.253,0.242,-0.133,-0.115,0.248,0.048,-0.069,-0.083,-0.091,-0.084,-0.021
-0.027,0.219,0.245,-0.096,-0.137,0.232,0.045,-0.070,-0.080,-0.083,-0.078,-0.013
-0.030,0.215,0.245,-0.093,-0.138,0.230,0.045,-0.070,-0.080,-0.075,-0.070,-0.005
-0.042,0.203,0.245,-0.081,-0.144,0.224,0.046,-0.070,-0.076,-0.067,-0.065,0.003
-0.049,0.193,0.242,-0.073,-0.145,0.217,0.042,-0.071,-0.071,-0.060,-0.064,0.011
-0.053,0.186,0.239,-0.066,-0.146,0.213,0.040,-0.066,-0.070,-0.047,-0.053,0.020
-0.062,0.179,0.240,-0.058,-0.151,0.209,0.039,-0.078,-0.069,-0.051,-0.054,0.026
-0.065,0.175,0.240,-0.055,-0.153,0.207,0.035,-0.120,-0.065,-0.085,-0.080,0.025
-0.065,0.171,0.236,-0.054,-0.150,0.203,0.035,-0.118,-0.060,-0.083,-0.077,0.025
-0.068,0.166,0.234,-0.050,-0.152,0.200,0.032,-0.113,-0.060,-0.078,-0.074,0.025
-0.071,0.165,0.236,-0.047,-0.154,0.200,0.030,-0.116,-0.058,-0.081,-0.075,0.025
-0.078,0.156,0.234,-0.039,-0.156,0.194,0.029,-0.115,-0.055,-0.079,-0.075,0.024
-0.075,0.155,0.230,-0.040,-0.153,0.192,0.025,-0.115,-0.055,-0.075,-0.075,0.025
-0.018,0.211,0.230,-0.097,-0.124,0.221,0.025,-0.115,-0.051,-0.075,-0.075,0.042
-0.023,0.207,0.230,-0.092,-0.126,0.218,0.022,-0.115,-0.050,-0.076,-0.075,0.042
-0.063,0.168,0.231,-0.053,-0.148,0.199,0.020,-0.115,-0.048,-0.073,-0.075,0.030
-0.075,0.153,0.228,-0.039,-0.152,0.190,0.019,-0.115,-0.055,-0.070,-0.075,0.024
-0.060,0.150,0.210,-0.045,-0.135,0.180,0.015,-0.115,-0.080,-0.070,-0.075,0.020
-0.043,0.150,0.193,-0.054,-0.118,0.172,0.015,-0.115,-0.081,-0.070,-0.075,0.012
-0.037,0.149,0.186,-0.056,-0.112,0.167,0.015,-0.115,-0.079,-0.069,-0.074,0.003
-0.030,0.153,0.183,-0.062,-0.107,0.168,0.015,-0.115,-0.081,-0.074,-0.079,-0.002
-0.035,0.144,0.179,-0.055,-0.107,0.162,0.015,-0.115,-0.079,-0.081,-0.086,-0.007
-0.070,0.105,0.175,-0.018,-0.123,0.140,0.015,-0.115,-0.080,-0.085,-0.090,-0.015
-0.101,0.070,0.171,0.015,-0.136,0.120,0.015,-0.115,-0.100,-0.102,-0.107,-0.019
-0.110,0.057,0.167,0.026,-0.139,0.112,0.015,-0.115,-0.110,-0.107,-0.109,-0.023
-0.110,0.053,0.163,0.028,-0.137,0.108,0.015,-0.115,-0.109,-0.104,-0.104,-0.027
-0.109,0.049,0.158,0.030,-0.134,0.103,0.015,-0.115,-0.111,-0.105,-0.105,-0.031
-0.105,0.045,0.150,0.030,-0.128,0.097,0.015,-0.115,-0.115,-0.105,-0.105,-0.035
-0.105,0.041,0.146,0.032,-0.126,0.093,0.015,-0.115,-0.114,-0.103,-0.103,-0.039
-0.102,0.037,0.139,0.032,-0.121,0.088,0.015,-0.115,-0.120,-0.117,-0.117,-0.046
-0.099,0.034,0.133,0.033,-0.117,0.083,0.015,-0.115,-0.128,-0.129,-0.129,-0.053
-0.100,0.028,0.128,0.036,-0.114,0.078,0.015,-0.115,-0.130,-0.130,-0.131,-0.056
-0.100,0.020,0.120,0.040,-0.110,0.070,0.015,-0.115,-0.130,-0.130,-0.135,-0.060
-0.099,0.017,0.116,0.040,-0.108,0.067,0.015,-0.116,-0.135,-0.135,-0.140,-0.061
-0.115,-0.005,0.109,0.059,-0.112,0.052,0.015,-0.112,-0.132,-0.133,-0.137,-0.053
-0.176,-0.075,0.101,0.125,-0.138,0.013,0.015,-0.125,-0.147,-0.145,-0.150,-0.068
-0.150,-0.057,0.093,0.103,-0.121,0.018,0.015,-0.141,-0.167,-0.161,-0.166,-0.092
0.010,0.095,0.085,-0.053,-0.038,0.090,0.015,-0.135,-0.160,-0.155,-0.160,-0.085
-0.004,0.073,0.077,-0.035,-0.041,0.075,0.015,-0.135,-0.156,-0.154,-0.159,-0.084
-0.047,0.023,0.070,0.012,-0.059,0.047,0.015,-0.135,-0.152,-0.156,-0.161,-0.085
-0.046,0.012,0.058,0.017,-0.052,0.035,0.015,-0.135,-0.148,-0.153,-0.158,-0.085
-0.059,0.009,0.069,0.025,-0.064,0.039,0.015,-0.134,-0.144,-0.150,-0.155,-0.084
-0.110,0.005,0.115,0.052,-0.113,0.060,0.015,-0.130,-0.140,-0.150,-0.155,-0.080
-0.117,0.000,0.118,0.058,-0.118,0.059,0.016,-0.130,-0.136,-0.150,-0.155,-0.080
-0.112,-0.001,0.111,0.056,-0.111,0.055,0.009,-0.130,-0.135,-0.147,-0.152,-0.080
-0.139,-0.015,0.124,0.077,-0.131,0.054,0.002,-0.130,-0.135,-0.144,-0.149,-0.080
-0.167,-0.031,0.136,0.099,-0.151,0.052,-0.001,-0.129,-0.135,-0.145,-0.150,-0.079
-0.155,-0.025,0.130,0.090,-0.142,0.052,-0.005,-0.125,-0.135,-0.145,-0.150,-0.075
-0.151,-0.021,0.130,0.086,-0.140,0.055,-0.009,-0.125,-0.135,-0.141,-0.146,-0.075
-0.144,-0.017,0.127,0.080,-0.135,0.055,-0.013,-0.125,-0.135,-0.139,-0.144,-0.075
-0.139,-0.015,0.124,0.076,-0.131,0.055,-0.018,-0.125,-0.135,-0.141,-0.146,-0.075
-0.140,-0.015,0.125,0.077,-0.132,0.055,-0.020,-0.125,-0.135,-0.139,-0.144,-0.075
-0.135,-0.010,0.125,0.072,-0.130,0.057,-0.015,-0.125,-0.135,-0.135,-0.140,-0.075
-0.126,-0.006,0.121,0.066,-0.123,0.057,-0.010,-0.121,-0.135,-0.135,-0.140,-0.071
-0.125,-0.005,0.120,0.065,-0.122,0.057,-0.010,-0.120,-0.135,-0.136,-0.141,-0.070
-0.122,-0.004,0.118,0.063,-0.120,0.057,-0.008,-0.120,-0.135,-0.133,-0.138,-0.070
-0.113,0.001,0.114,0.055,-0.114,0.057,-0.005,-0.120,-0.135,-0.130,-0.135,-0.070
-0.110,0.005,0.115,0.052,-0.113,0.060,-0.005,-0.120,-0.135,-0.130,-0.135,-0.070
-0.111,0.005,0.116,0.053,-0.114,0.060,-0.001,-0.116,-0.135,-0.130,-0.135,-0.066
-0.104,0.008,0.112,0.048,-0.108,0.060,0.004,-0.114,-0.135,-0.127,-0.132,-0.065
-0.100,0.010,0.110,0.045,-0.105,0.060,0.005,-0.115,-0.136,-0.125,-0.130,-0.065
-0.099,0.011,0.109,0.044,-0.104,0.060,0.006,-0.115,-0.133,-0.125,-0.130,-0.065
-0.090,0.015,0.105,0.037,-0.098,0.060,0.010,-0.115,-0.120,-0.125,-0.130,-0.065
-0.089,0.016,0.105,0.036,-0.097,0.060,0.008,-0.118,-0.112,-0.126,-0.130,-0.065
-0.093,0.012,0.106,0.040,-0.100,0.059,0.029,-0.089,-0.104,-0.119,-0.128,-0.067
-0.095,0.008,0.103,0.043,-0.099,0.055,0.059,-0.057,-0.098,-0.112,-0.137,-0.076
-0.096,0.004,0.100,0.046,-0.098,0.052,0.088,-0.014,-0.084,-0.109,-0.162,-0.097
-0.100,0.000,0.100,0.050,-0.100,0.050,0.125,0.070,-0.055,-0.105,-0.180,-0.120
-0.104,-0.007,0.098,0.056,-0.101,0.045,0.171,0.134,-0.032,-0.097,-0.176,-0.124
-0.101,0.015,0.115,0.043,-0.108,0.065,0.196,0.170,0.000,-0.090,-0.179,-0.132
-0.057,0.056,0.113,0.001,-0.085,0.084,0.217,0.220,0.024,-0.094,-0.158,-0.116
-0.044,0.076,0.120,-0.016,-0.082,0.097,0.257,0.311,0.068,-0.072,-0.109,-0.076
-0.085,0.090,0.175,-0.003,-0.130,0.132,0.300,0.420,0.170,0.010,-0.065,-0.040
-0.001,0.169,0.170,-0.084,-0.086,0.169,0.315,0.512,0.286,0.091,-0.003,0.009
0.036,0.205,0.169,-0.121,-0.067,0.187,0.344,0.644,0.439,0.206,0.078,0.051
0.016,0.258,0.242,-0.137,-0.113,0.249,0.354,0.740,0.609,0.361,0.193,0.124
0.065,0.396,0.330,-0.231,-0.133,0.363,0.345,0.783,0.778,0.534,0.337,0.240
0.195,0.560,0.365,-0.378,-0.085,0.462,0.340,0.840,0.955,0.720,0.490,0.360
0.245,0.668,0.422,-0.457,-0.088,0.545,0.280,0.863,1.139,0.924,0.647,0.476
0.272,0.766,0.494,-0.519,-0.111,0.630,0.199,0.835,1.328,1.126,0.799,0.598
0.372,0.940,0.567,-0.656,-0.098,0.753,0.074,0.799,1.541,1.357,0.987,0.752
0.447,1.110,0.663,-0.779,-0.108,0.886,-0.082,0.755,1.754,1.604,1.193,0.911
0.420,1.225,0.805,-0.823,-0.193,1.015,-0.225,0.635,1.910,1.820,1.380,1.055
0.497,1.453,0.957,-0.975,-0.231,1.205,-0.360,0.398,1.987,1.998,1.573,1.209
0.485,1.443,0.958,-0.965,-0.237,1.200,-0.389,0.172,1.958,2.009,1.557,1.184
0.379,1.283,0.904,-0.831,-0.263,1.093,-0.366,0.028,1.878,1.913,1.425,1.059
0.296,1.164,0.867,-0.730,-0.285,1.015,-0.376,-0.105,1.703,1.746,1.286,0.947
0.260,1.040,0.780,-0.650,-0.260,0.910,-0.400,-0.275,1.365,1.465,1.095,0.820
0.184,0.830,0.646,-0.507,-0.231,0.738,-0.384,-0.384,0.981,1.134,0.845,0.647
0.089,0.594,0.505,-0.341,-0.208,0.549,-0.375,-0.495,0.525,0.728,0.559,0.462
0.039,0.420,0.380,-0.230,-0.171,0.400,-0.339,-0.525,0.059,0.300,0.293,0.294
0.015,0.309,0.293,-0.162,-0.139,0.301,-0.240,-0.430,-0.280,-0.033,0.093,0.161
-0.045,0.190,0.235,-0.073,-0.140,0.212,-0.125,-0.300,-0.420,-0.205,-0.035,0.070
-0.100,0.047,0.146,0.026,-0.123,0.096,-0.070,-0.189,-0.419,-0.252,-0.123,0.013
-0.097,-0.020,0.077,0.058,-0.086,0.028,-0.025,-0.060,-0.313,-0.222,-0.145,-0.043
-0.079,-0.058,0.022,0.068,-0.050,-0.018,0.024,0.093,-0.216,-0.171,-0.150,-0.076
-0.054,-0.086,-0.032,0.070,-0.011,-0.058,0.073,0.203,-0.159,-0.140,-0.160,-0.089
-0.010,-0.065,-0.055,0.038,0.023,-0.060,0.115,0.230,-0.100,-0.130,-0.150,-0.105
-0.024,-0.053,-0.029,0.038,0.003,-0.041,0.113,0.248,-0.082,-0.122,-0.142,-0.098
-0.038,-0.036,0.002,0.036,-0.020,-0.016,0.105,0.241,-0.069,-0.114,-0.134,-0.088
-0.030,-0.001,0.029,0.016,-0.030,0.014,0.105,0.221,-0.052,-0.104,-0.126,-0.083
-0.052,0.004,0.057,0.024,-0.054,0.030,0.104,0.206,-0.036,-0.093,-0.118,-0.078
-0.110,-0.030,0.080,0.070,-0.095,0.025,0.100,0.190,-0.025,-0.085,-0.110,-0.070
-0.103,-0.004,0.098,0.054,-0.101,0.046,0.096,0.174,-0.025,-0.077,-0.102,-0.062
-0.075,0.025,0.100,0.025,-0.088,0.062,0.092,0.157,-0.025,-0.071,-0.096,-0.057
-0.057,0.063,0.120,-0.003,-0.089,0.091,0.105,0.146,-0.025,-0.070,-0.095,-0.053
-0.048,0.100,0.148,-0.026,-0.099,0.124,0.121,0.128,-0.024,-0.070,-0.095,-0.050
-0.045,0.100,0.145,-0.028,-0.095,0.122,0.110,0.085,-0.025,-0.070,-0.095,-0.050
-0.045,0.100,0.145,-0.028,-0.095,0.122,0.102,0.042,-0.038,-0.066,-0.091,-0.050
-0.045,0.100,0.145,-0.028,-0.095,0.122,0.094,0.026,-0.038,-0.064,-0.090,-0.047
-0.045,0.100,0.145,-0.028,-0.095,0.122,0.086,0.024,-0.034,-0.066,-0.090,-0.044
-0.045,0.100,0.145,-0.028,-0.095,0.122,0.078,0.018,-0.035,-0.064,-0.090,-0.045
-0.045,0.100,0.145,-0.028,-0.095,0.122,0.070,0.010,-0.035,-0.060,-0.090,-0.045
-0.044,0.100,0.144,-0.028,-0.094,0.122,0.066,0.006,-0.031,-0.060,-0.086,-0.041
-0.051,0.100,0.151,-0.025,-0.101,0.125,0.062,-0.002,-0.029,-0.061,-0.084,-0.039
-0.058,0.100,0.158,-0.021,-0.108,0.129,0.060,-0.005,-0.031,-0.058,-0.086,-0.041
-0.061,0.100,0.160,-0.020,-0.110,0.130,0.059,-0.015,-0.029,-0.055,-0.084,-0.039
-0.060,0.100,0.160,-0.020,-0.110,0.130,0.055,-0.040,-0.025,-0.055,-0.080,-0.035
-0.055,0.104,0.159,-0.025,-0.107,0.131,0.055,-0.041,-0.025,-0.055,-0.080,-0.035
-0.059,0.105,0.165,-0.023,-0.113,0.135,0.056,-0.039,-0.026,-0.052,-0.080,-0.036
-0.039,0.105,0.144,-0.033,-0.092,0.124,0.053,-0.040,-0.023,-0.049,-0.080,-0.033
-0.031,0.105,0.136,-0.037,-0.084,0.120,0.050,-0.040,-0.020,-0.050,-0.079,-0.030
-0.075,0.105,0.180,-0.015,-0.128,0.142,0.050,-0.040,-0.020,-0.050,-0.075,-0.030
-0.073,0.105,0.178,-0.016,-0.126,0.142,0.046,-0.040,-0.020,-0.046,-0.075,-0.030
-0.068,0.105,0.173,-0.019,-0.121,0.139,0.044,-0.040,-0.017,-0.044,-0.075,-0.027
-0.071,0.105,0.176,-0.018,-0.124,0.140,0.046,-0.040,-0.014,-0.046,-0.075,-0.024
-0.070,0.105,0.175,-0.018,-0.123,0.140,0.044,-0.040,-0.015,-0.044,-0.074,-0.025
-0.070,0.105,0.175,-0.018,-0.123,0.140,0.040,-0.040,-0.015,-0.040,-0.070,-0.025
-0.071,0.104,0.175,-0.017,-0.123,0.140,0.040,-0.040,-0.011,-0.040,-0.070,-0.021
-0.064,0.111,0.175,-0.024,-0.120,0.143,0.037,-0.041,-0.010,-0.040,-0.071,-0.019
-0.057,0.118,0.175,-0.031,-0.116,0.146,0.034,-0.038,-0.010,-0.040,-0.068,-0.021
-0.054,0.121,0.175,-0.034,-0.115,0.148,0.035,-0.035,-0.010,-0.039,-0.065,-0.019
-0.050,0.125,0.175,-0.038,-0.113,0.150,0.035,-0.035,-0.005,-0.035,-0.065,-0.015
-0.050,0.125,0.175,-0.038,-0.113,0.150,0.031,-0.023,0.002,-0.032,-0.065,-0.015
-0.050,0.125,0.175,-0.038,-0.113,0.150,0.029,-0.047,-0.019,-0.052,-0.065,-0.015
-0.050,0.125,0.175,-0.038,-0.113,0.150,0.031,-0.061,-0.030,-0.059,-0.063,-0.015
-0.050,0.125,0.175,-0.038,-0.113,0.150,0.029,-0.048,-0.018,-0.048,-0.060,-0.014
-0.050,0.125,0.175,-0.038,-0.113,0.150,0.025,-0.045,-0.015,-0.045,-0.060,-0.010
-0.050,0.125,0.175,-0.038,-0.113,0.150,0.025,-0.042,-0.007,-0.042,-0.060,-0.010
-0.051,0.124,0.175,-0.037,-0.113,0.150,0.025,-0.034,-0.002,-0.034,-0.057,-0.010
-0.048,0.127,0.175,-0.040,-0.112,0.151,0.025,-0.027,0.004,-0.027,-0.055,-0.010
-0.045,0.130,0.175,-0.043,-0.110,0.152,0.025,-0.024,0.011,-0.024,-0.055,-0.009
-0.045,0.130,0.175,-0.043,-0.110,0.152,0.025,-0.020,0.015,-0.020,-0.055,-0.005
-0.045,0.130,0.175,-0.043,-0.110,0.152,0.025,-0.016,0.023,-0.016,-0.055,-0.005
-0.045,0.130,0.175,-0.043,-0.110,0.152,0.025,-0.015,0.028,-0.012,-0.052,-0.006
-0.045,0.130,0.175,-0.043,-0.110,0.152,0.025,-0.013,0.032,-0.008,-0.049,-0.003
-0.045,0.130,0.175,-0.043,-0.110,0.152,0.025,-0.009,0.036,-0.005,-0.050,0.000
-0.045,0.130,0.175,-0.043,-0.110,0.152,0.025,-0.010,0.040,-0.005,-0.050,0.000
-0.045,0.130,0.175,-0.043,-0.110,0.152,0.025,-0.011,0.044,-0.001,-0.050,0.000
-0.044,0.133,0.177,-0.045,-0.111,0.155,0.025,-0.007,0.047,0.004,-0.047,-0.001
-0.033,0.136,0.169,-0.052,-0.102,0.152,0.025,-0.005,0.054,0.005,-0.042,0.002
-0.034,0.135,0.169,-0.051,-0.102,0.152,0.025,-0.004,0.061,0.006,-0.040,0.005
-0.060,0.135,0.195,-0.038,-0.128,0.165,0.025,0.000,0.065,0.010,-0.040,0.005
-0.066,0.135,0.201,-0.035,-0.134,0.167,0.025,0.000,0.070,0.015,-0.036,0.005
-0.065,0.135,0.200,-0.035,-0.133,0.167,0.025,-0.001,0.069,0.014,-0.031,0.005
-0.065,0.135,0.200,-0.035,-0.133,0.167,0.025,0.003,0.075,0.019,-0.030,0.007
-0.065,0.135,0.200,-0.035,-0.133,0.167,0.025,0.012,0.087,0.026,-0.029,0.011
-0.065,0.135,0.200,-0.035,-0.133,0.167,0.025,0.020,0.090,0.030,-0.020,0.015
-0.065,0.135,0.200,-0.035,-0.133,0.167,0.025,0.028,0.092,0.038,-0.016,0.019
-0.064,0.136,0.200,-0.036,-0.133,0.167,0.025,0.036,0.110,0.043,-0.009,0.023
-0.067,0.133,0.200,-0.033,-0.134,0.166,0.025,0.044,0.111,0.049,-0.003,0.027
-0.061,0.139,0.200,-0.039,-0.131,0.169,0.025,0.052,0.108,0.057,0.002,0.030
-0.045,0.155,0.200,-0.055,-0.123,0.177,0.025,0.055,0.135,0.060,0.010,0.030
-0.057,0.142,0.200,-0.043,-0.129,0.170,0.025,0.048,0.138,0.057,0.014,0.027
-0.090,0.113,0.203,-0.012,-0.147,0.158,0.022,0.036,0.129,0.050,0.018,0.018
-0.066,0.140,0.206,-0.038,-0.136,0.173,0.020,0.056,0.154,0.072,0.022,0.033
-0.013,0.192,0.205,-0.090,-0.109,0.198,0.019,0.090,0.190,0.105,0.026,0.059
-0.015,0.190,0.205,-0.088,-0.110,0.197,0.015,0.090,0.190,0.105,0.030,0.060
-0.016,0.189,0.205,-0.087,-0.110,0.197,0.015,0.088,0.193,0.104,0.034,0.060
-0.015,0.190,0.205,-0.088,-0.110,0.197,0.016,0.099,0.202,0.111,0.038,0.060
-0.013,0.192,0.205,-0.090,-0.109,0.198,0.013,0.107,0.207,0.117,0.041,0.059
-0.009,0.196,0.205,-0.094,-0.108,0.200,0.010,0.113,0.220,0.122,0.047,0.061
-0.010,0.195,0.205,-0.093,-0.108,0.200,0.010,0.130,0.245,0.135,0.060,0.070
-0.011,0.194,0.205,-0.092,-0.109,0.200,0.010,0.138,0.253,0.148,0.073,0.074
0.000,0.202,0.203,-0.102,-0.102,0.202,0.007,0.149,0.266,0.156,0.077,0.078
0.005,0.218,0.213,-0.112,-0.104,0.215,0.004,0.159,0.283,0.166,0.089,0.082
0.007,0.233,0.226,-0.121,-0.109,0.229,0.005,0.167,0.299,0.178,0.108,0.087
0.020,0.240,0.220,-0.130,-0.100,0.230,0.005,0.180,0.315,0.190,0.115,0.095
0.021,0.241,0.220,-0.131,-0.100,0.230,0.001,0.197,0.334,0.210,0.123,0.099
0.052,0.269,0.217,-0.161,-0.083,0.243,0.000,0.205,0.358,0.229,0.129,0.107
0.060,0.292,0.231,-0.176,-0.086,0.261,-0.002,0.205,0.364,0.236,0.131,0.111
0.036,0.288,0.252,-0.162,-0.108,0.270,-0.006,0.215,0.370,0.244,0.139,0.119
0.040,0.290,0.250,-0.165,-0.105,0.270,-0.005,0.240,0.405,0.270,0.160,0.145
0.064,0.315,0.251,-0.189,-0.093,0.283,-0.005,0.250,0.428,0.288,0.178,0.163
0.081,0.325,0.244,-0.203,-0.082,0.285,-0.008,0.251,0.431,0.291,0.182,0.169
0.072,0.326,0.254,-0.199,-0.091,0.290,-0.011,0.262,0.446,0.306,0.194,0.171
0.059,0.332,0.273,-0.196,-0.106,0.302,-0.010,0.278,0.470,0.329,0.214,0.177
0.070,0.340,0.270,-0.205,-0.100,0.305,-0.010,0.285,0.480,0.335,0.225,0.185
0.076,0.344,0.268,-0.210,-0.096,0.306,-0.014,0.288,0.491,0.346,0.233,0.193
0.065,0.348,0.283,-0.206,-0.109,0.315,-0.015,0.303,0.508,0.363,0.242,0.202
0.060,0.353,0.292,-0.206,-0.116,0.322,-0.015,0.311,0.519,0.372,0.247,0.205
0.056,0.346,0.290,-0.201,-0.117,0.318,-0.014,0.303,0.519,0.369,0.252,0.198
0.045,0.335,0.290,-0.190,-0.123,0.312,-0.010,0.300,0.520,0.370,0.260,0.200
0.079,0.369,0.290,-0.224,-0.106,0.329,-0.010,0.315,0.540,0.389,0.262,0.224
0.119,0.409,0.290,-0.264,-0.086,0.349,-0.010,0.335,0.554,0.408,0.283,0.243
0.149,0.439,0.290,-0.294,-0.071,0.364,-0.010,0.340,0.568,0.420,0.302,0.259
0.168,0.458,0.289,-0.313,-0.061,0.373,-0.010,0.334,0.582,0.425,0.306,0.272
0.170,0.460,0.290,-0.315,-0.060,0.375,-0.010,0.330,0.585,0.430,0.310,0.275
0.157,0.460,0.303,-0.309,-0.073,0.381,-0.010,0.326,0.590,0.447,0.317,0.275
0.156,0.460,0.304,-0.308,-0.074,0.382,-0.011,0.321,0.588,0.449,0.333,0.277
0.163,0.460,0.297,-0.312,-0.067,0.378,-0.008,0.320,0.583,0.444,0.342,0.283
0.165,0.460,0.295,-0.313,-0.065,0.377,-0.005,0.319,0.579,0.445,0.340,0.285
0.165,0.460,0.295,-0.313,-0.065,0.377,-0.005,0.315,0.575,0.445,0.340,0.280
0.170,0.461,0.291,-0.316,-0.060,0.376,-0.005,0.311,0.571,0.445,0.340,0.276
0.161,0.452,0.290,-0.306,-0.065,0.371,-0.005,0.307,0.567,0.445,0.340,0.272
0.152,0.440,0.288,-0.296,-0.069,0.364,-0.005,0.302,0.564,0.446,0.340,0.268
0.148,0.433,0.285,-0.291,-0.069,0.359,-0.005,0.300,0.556,0.442,0.341,0.265
0.140,0.425,0.285,-0.283,-0.073,0.355,-0.005,0.300,0.535,0.425,0.340,0.265
0.136,0.417,0.281,-0.276,-0.073,0.349,-0.005,0.289,0.519,0.413,0.328,0.261
0.132,0.409,0.276,-0.271,-0.072,0.342,-0.002,0.276,0.498,0.398,0.316,0.257
0.127,0.402,0.275,-0.265,-0.075,0.339,0.001,0.264,0.472,0.384,0.303,0.253
0.117,0.391,0.274,-0.255,-0.079,0.333,0.000,0.253,0.450,0.370,0.293,0.249
0.105,0.375,0.270,-0.240,-0.083,0.322,0.000,0.240,0.435,0.350,0.285,0.245
0.093,0.363,0.270,-0.228,-0.089,0.317,0.000,0.212,0.421,0.335,0.258,0.247
0.081,0.348,0.267,-0.215,-0.093,0.307,0.000,0.186,0.389,0.310,0.230,0.231
0.068,0.334,0.266,-0.202,-0.099,0.299,0.000,0.166,0.353,0.282,0.211,0.211
0.058,0.321,0.263,-0.190,-0.103,0.292,0.000,0.152,0.322,0.259,0.196,0.196
0.055,0.305,0.250,-0.180,-0.098,0.277,0.000,0.140,0.290,0.230,0.180,0.180
0.047,0.289,0.242,-0.168,-0.098,0.265,0.000,0.124,0.257,0.201,0.164,0.168
0.038,0.273,0.235,-0.156,-0.099,0.253,0.003,0.111,0.231,0.179,0.148,0.153
0.033,0.257,0.224,-0.145,-0.096,0.240,0.006,0.097,0.208,0.162,0.132,0.139
0.028,0.241,0.213,-0.135,-0.093,0.227,0.005,0.082,0.184,0.145,0.116,0.126
0.020,0.225,0.205,-0.123,-0.093,0.215,0.005,0.070,0.160,0.120,0.100,0.110
0.012,0.209,0.197,-0.111,-0.093,0.203,0.009,0.054,0.140,0.096,0.084,0.098
0.005,0.193,0.188,-0.100,-0.092,0.191,0.010,0.041,0.118,0.075,0.068,0.083
-0.007,0.176,0.183,-0.085,-0.095,0.180,0.010,0.029,0.092,0.054,0.052,0.068
-0.016,0.162,0.178,-0.073,-0.098,0.170,0.010,0.018,0.070,0.036,0.037,0.058
-0.015,0.155,0.170,-0.070,-0.093,0.162,0.010,0.010,0.055,0.025,0.025,0.050
-0.019,0.147,0.166,-0.064,-0.093,0.157,0.014,0.002,0.039,0.013,0.009,0.042
-0.020,0.139,0.159,-0.060,-0.090,0.149,0.016,-0.009,0.023,0.000,-0.005,0.034
-0.021,0.131,0.153,-0.055,-0.087,0.142,0.014,-0.020,0.009,-0.009,-0.014,0.026
-0.026,0.123,0.149,-0.048,-0.088,0.135,0.016,-0.027,-0.003,-0.018,-0.022,0.018
-0.030,0.115,0.145,-0.043,-0.088,0.130,0.020,-0.035,-0.015,-0.030,-0.030,0.010
-0.034,0.112,0.145,-0.040,-0.089,0.128,0.020,-0.048,-0.027,-0.038,-0.038,0.002
-0.041,0.101,0.142,-0.030,-0.092,0.121,0.020,-0.054,-0.039,-0.045,-0.046,-0.003
-0.049,0.090,0.139,-0.021,-0.095,0.114,0.020,-0.057,-0.051,-0.056,-0.054,-0.007
-0.057,0.083,0.140,-0.013,-0.099,0.111,0.019,-0.061,-0.063,-0.067,-0.062,-0.011
-0.065,0.075,0.140,-0.005,-0.103,0.107,0.015,-0.065,-0.075,-0.075,-0.065,-0.015
-0.069,0.067,0.136,0.001,-0.103,0.101,0.015,-0.077,-0.083,-0.083,-0.064,-0.019
-0.074,0.060,0.134,0.007,-0.105,0.097,0.015,-0.084,-0.094,-0.091,-0.077,-0.020
-0.088,0.048,0.136,0.020,-0.112,0.092,0.015,-0.085,-0.103,-0.097,-0.089,-0.021
-0.085,0.049,0.134,0.017,-0.110,0.092,0.015,-0.086,-0.106,-0.101,-0.090,-0.026
-0.055,0.075,0.130,-0.010,-0.093,0.102,0.015,-0.090,-0.110,-0.105,-0.090,-0.030
-0.058,0.072,0.130,-0.007,-0.094,0.101,0.015,-0.091,-0.114,-0.109,-0.090,-0.034
-0.061,0.069,0.131,-0.004,-0.096,0.100,0.016,-0.087,-0.115,-0.110,-0.093,-0.039
-0.060,0.068,0.128,-0.005,-0.094,0.098,0.013,-0.085,-0.115,-0.110,-0.095,-0.040
-0.060,0.065,0.125,-0.003,-0.093,0.095,0.010,-0.085,-0.115,-0.110,-0.095,-0.041
-0.060,0.065,0.125,-0.003,-0.093,0.095,0.010,-0.085,-0.115,-0.110,-0.095,-0.045
-0.060,0.061,0.121,-0.001,-0.091,0.091,0.010,-0.085,-0.115,-0.111,-0.091,-0.045
-0.060,0.059,0.119,0.000,-0.090,0.089,0.010,-0.085,-0.113,-0.107,-0.087,-0.045
-0.060,0.061,0.121,0.000,-0.090,0.091,0.010,-0.085,-0.123,-0.120,-0.100,-0.045
-0.060,0.059,0.119,0.000,-0.090,0.089,0.010,-0.085,-0.136,-0.136,-0.116,-0.045
-0.060,0.055,0.115,0.002,-0.088,0.085,0.010,-0.085,-0.130,-0.130,-0.110,-0.045
-0.059,0.055,0.115,0.002,-0.088,0.085,0.010,-0.085,-0.129,-0.129,-0.110,-0.045
-0.064,0.052,0.116,0.005,-0.090,0.083,0.007,-0.085,-0.131,-0.131,-0.110,-0.048
-0.063,0.050,0.113,0.006,-0.088,0.081,0.004,-0.085,-0.128,-0.128,-0.110,-0.051
-0.060,0.049,0.110,0.006,-0.085,0.079,0.005,-0.085,-0.125,-0.125,-0.109,-0.050
-0.065,0.045,0.110,0.010,-0.088,0.077,0.005,-0.085,-0.125,-0.125,-0.105,-0.050
-0.065,0.045,0.109,0.010,-0.087,0.077,0.005,-0.085,-0.125,-0.125,-0.105,-0.050
-0.070,0.045,0.116,0.013,-0.094,0.080,0.005,-0.085,-0.126,-0.126,-0.105,-0.050
-0.078,0.045,0.123,0.016,-0.101,0.084,0.005,-0.085,-0.123,-0.123,-0.105,-0.050
-0.080,0.045,0.125,0.017,-0.103,0.085,0.005,-0.085,-0.120,-0.120,-0.104,-0.050
-0.080,0.045,0.125,0.017,-0.103,0.085,0.005,-0.085,-0.120,-0.120,-0.100,-0.050
-0.080,0.045,0.125,0.017,-0.103,0.085,0.005,-0.085,-0.120,-0.120,-0.100,-0.050
-0.080,0.045,0.125,0.017,-0.103,0.085,0.002,-0.085,-0.120,-0.120,-0.100,-0.050
-0.079,0.046,0.125,0.016,-0.103,0.085,-0.001,-0.085,-0.118,-0.118,-0.100,-0.050
-0.081,0.044,0.125,0.018,-0.104,0.084,0.000,-0.085,-0.115,-0.115,-0.100,-0.050
-0.080,0.045,0.125,0.017,-0.103,0.085,0.000,-0.085,-0.115,-0.115,-0.100,-0.050
-0.059,0.066,0.125,-0.004,-0.092,0.095,0.000,-0.085,-0.115,-0.115,-0.096,-0.050
-0.056,0.069,0.125,-0.007,-0.091,0.097,0.000,-0.085,-0.112,-0.112,-0.095,-0.050
-0.061,0.064,0.125,-0.002,-0.093,0.095,0.000,-0.085,-0.110,-0.110,-0.095,-0.050
-0.061,0.064,0.125,-0.002,-0.093,0.095,0.000,-0.085,-0.110,-0.110,-0.095,-0.050
-0.065,0.060,0.125,0.002,-0.095,0.092,0.000,-0.085,-0.110,-0.110,-0.095,-0.050
-0.064,0.060,0.125,0.002,-0.094,0.092,0.000,-0.085,-0.110,-0.110,-0.091,-0.050
-0.071,0.057,0.128,0.007,-0.100,0.092,0.000,-0.085,-0.107,-0.107,-0.090,-0.050
-0.076,0.055,0.131,0.010,-0.104,0.092,0.000,-0.085,-0.104,-0.104,-0.090,-0.050
-0.076,0.054,0.130,0.011,-0.103,0.092,0.000,-0.085,-0.105,-0.105,-0.090,-0.050
-0.080,0.050,0.130,0.015,-0.105,0.090,0.000,-0.085,-0.105,-0.105,-0.090,-0.050
-0.080,0.050,0.130,0.015,-0.105,0.090,-0.004,-0.085,-0.105,-0.105,-0.089,-0.050
-0.083,0.047,0.130,0.018,-0.107,0.088,-0.005,-0.085,-0.108,-0.108,-0.095,-0.050
-0.085,0.045,0.130,0.020,-0.108,0.087,-0.005,-0.085,-0.111,-0.111,-0.103,-0.050
-0.086,0.044,0.130,0.021,-0.108,0.087,-0.005,-0.085,-0.110,-0.110,-0.104,-0.049
-0.100,0.030,0.130,0.035,-0.115,0.080,-0.005,-0.085,-0.110,-0.110,-0.100,-0.045
-0.120,0.010,0.130,0.055,-0.126,0.069,-0.005,-0.085,-0.110,-0.110,-0.100,-0.045
-0.067,0.063,0.130,0.002,-0.099,0.096,-0.005,-0.085,-0.110,-0.110,-0.100,-0.045
-0.041,0.088,0.130,-0.024,-0.086,0.109,-0.005,-0.085,-0.110,-0.110,-0.100,-0.045
-0.096,0.035,0.130,0.031,-0.113,0.082,-0.005,-0.085,-0.110,-0.110,-0.099,-0.045
-0.115,0.015,0.130,0.050,-0.123,0.072,-0.005,-0.085,-0.110,-0.110,-0.095,-0.045
-0.027,0.099,0.126,-0.036,-0.077,0.112,-0.005,-0.085,-0.110,-0.110,-0.095,-0.045
-0.009,0.116,0.124,-0.054,-0.067,0.120,-0.005,-0.085,-0.110,-0.110,-0.095,-0.046
-0.033,0.092,0.126,-0.030,-0.079,0.108,-0.005,-0.085,-0.110,-0.110,-0.095,-0.043
-0.035,0.089,0.124,-0.027,-0.080,0.106,-0.005,-0.085,-0.110,-0.110,-0.094,-0.040
-0.040,0.080,0.120,-0.020,-0.080,0.100,-0.005,-0.085,-0.110,-0.110,-0.090,-0.040
-0.048,0.072,0.120,-0.012,-0.084,0.096,-0.005,-0.085,-0.110,-0.114,-0.090,-0.040
-0.057,0.064,0.121,-0.004,-0.089,0.092,-0.005,-0.085,-0.110,-0.115,-0.090,-0.040
-0.062,0.056,0.118,0.003,-0.090,0.087,-0.005,-0.085,-0.110,-0.115,-0.090,-0.040
-0.067,0.048,0.115,0.009,-0.091,0.081,-0.006,-0.085,-0.110,-0.115,-0.090,-0.040
-0.075,0.040,0.115,0.017,-0.095,0.077,-0.010,-0.085,-0.110,-0.115,-0.090,-0.040
-0.084,0.032,0.115,0.025,-0.100,0.073,-0.010,-0.085,-0.110,-0.115,-0.086,-0.040
-0.088,0.024,0.112,0.031,-0.100,0.068,-0.010,-0.085,-0.110,-0.115,-0.085,-0.037
-0.094,0.015,0.109,0.039,-0.102,0.062,-0.010,-0.085,-0.110,-0.115,-0.085,-0.034
-0.092,0.018,0.110,0.037,-0.102,0.064,-0.010,-0.085,-0.110,-0.115,-0.085,-0.035
-0.065,0.045,0.110,0.010,-0.088,0.077,-0.010,-0.085,-0.110,-0.115,-0.085,-0.035
-0.034,0.072,0.106,-0.019,-0.070,0.089,-0.010,-0.085,-0.110,-0.115,-0.081,-0.035
-0.031,0.074,0.104,-0.022,-0.068,0.089,-0.013,-0.085,-0.110,-0.115,-0.080,-0.035
-0.037,0.069,0.106,-0.016,-0.071,0.087,-0.016,-0.085,-0.110,-0.115,-0.080,-0.035
-0.034,0.070,0.104,-0.019,-0.069,0.087,-0.015,-0.085,-0.111,-0.116,-0.080,-0.035
-0.030,0.070,0.100,-0.020,-0.065,0.085,-0.015,-0.085,-0.115,-0.120,-0.080,-0.035
-0.034,0.066,0.100,-0.016,-0.067,0.082,-0.015,-0.085,-0.115,-0.120,-0.080,-0.035
-0.036,0.064,0.101,-0.014,-0.069,0.082,-0.015,-0.086,-0.115,-0.120,-0.078,-0.038
-0.032,0.066,0.098,-0.017,-0.066,0.082,-0.015,-0.083,-0.115,-0.120,-0.070,-0.040
-0.031,0.063,0.095,-0.017,-0.063,0.079,-0.016,-0.089,-0.115,-0.120,-0.074,-0.041
-0.040,0.055,0.095,-0.008,-0.068,0.075,-0.020,-0.110,-0.115,-0.120,-0.100,-0.045
-0.044,0.051,0.095,-0.004,-0.070,0.073,-0.020,-0.111,-0.119,-0.120,-0.105,-0.045
-0.051,0.044,0.094,0.003,-0.072,0.069,-0.020,-0.109,-0.120,-0.120,-0.105,-0.048
-0.059,0.038,0.097,0.010,-0.078,0.067,-0.020,-0.110,-0.120,-0.120,-0.105,-0.050
-0.067,0.033,0.100,0.017,-0.084,0.066,-0.020,-0.110,-0.120,-0.120,-0.105,-0.051
-0.075,0.025,0.100,0.025,-0.088,0.062,-0.020,-0.110,-0.120,-0.120,-0.105,-0.055
-0.079,0.021,0.100,0.029,-0.089,0.060,-0.020,-0.110,-0.120,-0.120,-0.105,-0.055
-0.086,0.017,0.103,0.034,-0.095,0.060,-0.023,-0.110,-0.121,-0.123,-0.105,-0.055
-0.093,0.013,0.106,0.039,-0.099,0.059,-0.026,-0.110,-0.118,-0.126,-0.105,-0.055
-0.096,0.009,0.105,0.043,-0.100,0.056,-0.025,-0.110,-0.123,-0.125,-0.106,-0.056
-0.100,0.005,0.105,0.047,-0.103,0.055,-0.025,-0.110,-0.140,-0.125,-0.110,-0.060
-0.108,0.001,0.109,0.053,-0.109,0.055,-0.025,-0.110,-0.141,-0.125,-0.110,-0.064
-0.114,-0.003,0.110,0.059,-0.112,0.053,-0.025,-0.110,-0.140,-0.128,-0.110,-0.068
-0.116,-0.006,0.110,0.061,-0.112,0.051,-0.025,-0.110,-0.140,-0.132,-0.110,-0.070
-0.114,-0.004,0.110,0.059,-0.112,0.053,-0.025,-0.110,-0.140,-0.136,-0.110,-0.070
-0.110,0.000,0.110,0.055,-0.110,0.055,-0.025,-0.110,-0.140,-0.140,-0.110,-0.070
-0.105,0.001,0.106,0.051,-0.106,0.054,-0.025,-0.110,-0.140,-0.140,-0.110,-0.070
-0.074,0.028,0.102,0.023,-0.088,0.065,-0.025,-0.109,-0.141,-0.140,-0.110,-0.069
-0.058,0.040,0.098,0.008,-0.078,0.069,-0.025,-0.113,-0.138,-0.140,-0.110,-0.072
-0.067,0.027,0.094,0.019,-0.080,0.060,-0.025,-0.122,-0.143,-0.140,-0.110,-0.075
-0.070,0.020,0.090,0.025,-0.080,0.055,-0.025,-0.125,-0.160,-0.140,-0.110,-0.075
-0.078,0.012,0.090,0.033,-0.084,0.051,-0.025,-0.125,-0.165,-0.140,-0.110,-0.075
-0.082,0.005,0.087,0.038,-0.085,0.046,-0.025,-0.125,-0.165,-0.140,-0.110,-0.075
-0.092,-0.009,0.083,0.050,-0.087,0.036,-0.025,-0.125,-0.165,-0.140,-0.110,-0.075
-0.109,-0.030,0.079,0.070,-0.094,0.024,-0.025,-0.125,-0.165,-0.140,-0.110,-0.076
-0.120,-0.045,0.075,0.082,-0.097,0.015,-0.025,-0.125,-0.165,-0.140,-0.110,-0.080
-0.120,-0.050,0.071,0.085,-0.095,0.010,-0.025,-0.125,-0.165,-0.140,-0.110,-0.080
-0.120,-0.050,0.070,0.085,-0.095,0.010,-0.025,-0.128,-0.165,-0.140,-0.110,-0.080
-0.120,-0.050,0.070,0.085,-0.095,0.010,-0.025,-0.131,-0.165,-0.140,-0.110,-0.080
-0.120,-0.050,0.070,0.085,-0.095,0.010,-0.026,-0.130,-0.165,-0.140,-0.110,-0.080
-0.120,-0.050,0.070,0.085,-0.095,0.010,-0.030,-0.130,-0.165,-0.140,-0.110,-0.080
-0.120,-0.050,0.070,0.085,-0.095,0.010,-0.030,-0.130,-0.165,-0.140,-0.110,-0.080
-0.120,-0.050,0.070,0.085,-0.095,0.010,-0.030,-0.130,-0.165,-0.140,-0.110,-0.080
-0.120,-0.050,0.070,0.085,-0.095,0.010,-0.030,-0.130,-0.165,-0.140,-0.110,-0.080
-0.120,-0.050,0.070,0.085,-0.095,0.010,-0.030,-0.130,-0.165,-0.141,-0.110,-0.080
-0.120,-0.050,0.070,0.085,-0.095,0.010,-0.030,-0.130,-0.165,-0.145,-0.110,-0.080
-0.120,-0.050,0.070,0.085,-0.095,0.010,-0.030,-0.130,-0.165,-0.149,-0.110,-0.080
-0.121,-0.051,0.070,0.086,-0.095,0.010,-0.029,-0.130,-0.165,-0.153,-0.110,-0.080
-0.118,-0.048,0.070,0.083,-0.094,0.011,-0.032,-0.130,-0.165,-0.155,-0.110,-0.080
-0.115,-0.045,0.070,0.080,-0.092,0.012,-0.035,-0.130,-0.165,-0.155,-0.110,-0.080
-0.115,-0.045,0.070,0.080,-0.092,0.012,-0.035,-0.130,-0.165,-0.155,-0.110,-0.080
-0.115,-0.045,0.070,0.080,-0.092,0.012,-0.035,-0.130,-0.165,-0.155,-0.110,-0.080
-0.115,-0.045,0.070,0.080,-0.092,0.012,-0.035,-0.130,-0.165,-0.155,-0.110,-0.080
-0.115,-0.045,0.070,0.080,-0.092,0.012,-0.035,-0.130,-0.165,-0.155,-0.110,-0.080
-0.115,-0.045,0.070,0.080,-0.092,0.012,-0.035,-0.130,-0.165,-0.155,-0.110,-0.080
-0.115,-0.045,0.070,0.080,-0.092,0.012,-0.035,-0.130,-0.165,-0.155,-0.110,-0.080
-0.112,-0.045,0.066,0.078,-0.088,0.010,-0.035,-0.130,-0.165,-0.155,-0.114,-0.080
-0.103,-0.042,0.061,0.072,-0.082,0.010,-0.033,-0.131,-0.166,-0.156,-0.119,-0.083
-0.100,-0.039,0.060,0.070,-0.080,0.010,-0.027,-0.128,-0.163,-0.153,-0.120,-0.086
-0.099,-0.040,0.059,0.070,-0.079,0.009,-0.034,-0.134,-0.160,-0.159,-0.120,-0.085
-0.095,-0.040,0.055,0.067,-0.075,0.007,-0.055,-0.155,-0.160,-0.180,-0.120,-0.085
-0.095,-0.040,0.055,0.067,-0.075,0.007,-0.052,-0.152,-0.160,-0.177,-0.120,-0.085
-0.093,-0.040,0.053,0.066,-0.073,0.006,-0.049,-0.149,-0.160,-0.174,-0.120,-0.085
-0.087,-0.039,0.047,0.063,-0.067,0.004,-0.050,-0.150,-0.160,-0.175,-0.120,-0.085
-0.086,-0.041,0.045,0.063,-0.066,0.001,-0.050,-0.150,-0.160,-0.175,-0.119,-0.086
-0.085,-0.040,0.045,0.062,-0.065,0.002,-0.050,-0.150,-0.160,-0.175,-0.120,-0.090
-0.064,-0.023,0.041,0.044,-0.052,0.008,-0.050,-0.146,-0.160,-0.175,-0.137,-0.094
-0.089,-0.050,0.040,0.070,-0.064,-0.005,-0.047,-0.145,-0.160,-0.175,-0.139,-0.098
-0.088,-0.048,0.040,0.068,-0.064,-0.004,-0.044,-0.145,-0.160,-0.175,-0.134,-0.103
-0.031,0.009,0.040,0.011,-0.035,0.024,-0.045,-0.145,-0.160,-0.174,-0.135,-0.105
0.005,0.045,0.040,-0.025,-0.018,0.042,-0.045,-0.145,-0.160,-0.170,-0.135,-0.100
-0.005,0.035,0.040,-0.015,-0.023,0.037,-0.045,-0.141,-0.160,-0.170,-0.135,-0.100
-0.017,0.023,0.040,-0.003,-0.029,0.031,-0.045,-0.140,-0.160,-0.170,-0.135,-0.101
-0.023,0.017,0.040,0.003,-0.032,0.028,-0.045,-0.140,-0.160,-0.170,-0.135,-0.098
-0.033,0.007,0.040,0.013,-0.036,0.023,-0.044,-0.140,-0.160,-0.170,-0.135,-0.095
-0.045,-0.005,0.040,0.025,-0.042,0.017,-0.040,-0.140,-0.160,-0.170,-0.135,-0.095
-0.053,-0.013,0.040,0.033,-0.046,0.013,-0.040,-0.140,-0.160,-0.170,-0.135,-0.095
-0.060,-0.020,0.040,0.040,-0.049,0.009,-0.040,-0.137,-0.160,-0.171,-0.135,-0.095
-0.073,-0.032,0.041,0.052,-0.056,0.004,-0.040,-0.134,-0.160,-0.168,-0.135,-0.093
-0.079,-0.040,0.039,0.060,-0.059,-0.001,-0.040,-0.135,-0.160,-0.165,-0.135,-0.090
-0.075,-0.035,0.040,0.055,-0.057,0.002,-0.040,-0.135,-0.160,-0.165,-0.135,-0.090
-0.096,-0.035,0.061,0.065,-0.078,0.013,-0.036,-0.135,-0.160,-0.165,-0.131,-0.090
-0.096,-0.032,0.064,0.064,-0.080,0.016,-0.035,-0.132,-0.160,-0.165,-0.130,-0.087
-0.089,-0.030,0.059,0.059,-0.074,0.014,-0.035,-0.129,-0.160,-0.165,-0.130,-0.085
-0.089,-0.029,0.060,0.059,-0.075,0.015,-0.035,-0.130,-0.160,-0.165,-0.130,-0.085
-0.085,-0.025,0.060,0.055,-0.072,0.017,-0.035,-0.130,-0.160,-0.165,-0.130,-0.085
-0.086,-0.026,0.060,0.056,-0.072,0.017,-0.035,-0.130,-0.164,-0.165,-0.130,-0.085
-0.081,-0.021,0.060,0.051,-0.071,0.019,-0.035,-0.129,-0.167,-0.164,-0.130,-0.083
-0.115,-0.055,0.060,0.085,-0.087,0.003,-0.034,-0.133,-0.176,-0.169,-0.130,-0.093
-0.153,-0.093,0.060,0.123,-0.106,-0.016,-0.046,-0.151,-0.186,-0.175,-0.130,-0.106
-0.135,-0.075,0.060,0.105,-0.097,-0.007,-0.070,-0.170,-0.180,-0.170,-0.130,-0.100
-0.126,-0.066,0.060,0.096,-0.093,-0.003,-0.067,-0.163,-0.175,-0.170,-0.130,-0.100
-0.116,-0.056,0.060,0.086,-0.088,0.002,-0.061,-0.156,-0.175,-0.167,-0.130,-0.097
-0.105,-0.045,0.060,0.075,-0.083,0.007,-0.060,-0.154,-0.173,-0.165,-0.130,-0.095
-0.098,-0.038,0.060,0.068,-0.079,0.011,-0.059,-0.148,-0.170,-0.164,-0.129,-0.094
-0.085,-0.025,0.060,0.055,-0.072,0.017,-0.055,-0.140,-0.170,-0.160,-0.125,-0.090
-0.073,-0.013,0.060,0.043,-0.066,0.023,-0.055,-0.136,-0.166,-0.160,-0.125,-0.090
-0.097,-0.037,0.060,0.067,-0.079,0.011,-0.053,-0.132,-0.161,-0.161,-0.122,-0.087
-0.109,-0.049,0.060,0.079,-0.084,0.005,-0.047,-0.128,-0.160,-0.158,-0.120,-0.085
-0.092,-0.032,0.060,0.062,-0.075,0.014,-0.045,-0.124,-0.159,-0.155,-0.119,-0.084
-0.085,-0.025,0.060,0.055,-0.072,0.017,-0.045,-0.120,-0.155,-0.155,-0.115,-0.080
-0.073,-0.013,0.060,0.043,-0.066,0.023,-0.041,-0.120,-0.156,-0.151,-0.115,-0.080
-0.064,-0.004,0.060,0.034,-0.062,0.028,-0.041,-0.117,-0.149,-0.150,-0.112,-0.077
-0.055,0.006,0.060,0.024,-0.058,0.033,-0.037,-0.115,-0.142,-0.148,-0.110,-0.073
-0.042,0.018,0.060,0.012,-0.051,0.038,-0.028,-0.115,-0.139,-0.144,-0.109,-0.069
-0.030,0.025,0.055,0.002,-0.043,0.040,-0.025,-0.110,-0.135,-0.145,-0.105,-0.065
-0.020,0.030,0.049,-0.005,-0.035,0.039,-0.021,-0.105,-0.127,-0.146,-0.105,-0.065
-0.030,0.030,0.060,0.000,-0.045,0.045,-0.017,-0.105,-0.122,-0.139,-0.103,-0.063
-0.048,0.032,0.079,0.008,-0.064,0.055,-0.013,-0.103,-0.118,-0.132,-0.097,-0.057
-0.057,0.036,0.093,0.010,-0.075,0.064,-0.009,-0.100,-0.115,-0.129,-0.095,-0.055
-0.060,0.040,0.100,0.010,-0.080,0.070,-0.005,-0.100,-0.115,-0.125,-0.095,-0.055
-0.061,0.044,0.105,0.008,-0.083,0.075,-0.001,-0.096,-0.115,-0.121,-0.091,-0.051
-0.057,0.045,0.102,0.006,-0.080,0.073,0.003,-0.095,-0.115,-0.117,-0.086,-0.046
-0.054,0.046,0.100,0.004,-0.078,0.072,0.007,-0.095,-0.115,-0.113,-0.085,-0.045
-0.056,0.044,0.099,0.006,-0.078,0.071,0.012,-0.095,-0.115,-0.109,-0.084,-0.044
-0.050,0.045,0.095,0.002,-0.073,0.070,0.015,-0.095,-0.115,-0.105,-0.080,-0.040
-0.025,0.070,0.095,-0.023,-0.061,0.083,0.000,-0.095,-0.115,-0.101,-0.080,-0.040
-0.017,0.074,0.092,-0.029,-0.055,0.083,-0.016,-0.095,-0.111,-0.098,-0.080,-0.040
-0.021,0.069,0.090,-0.024,-0.056,0.079,-0.021,-0.096,-0.098,-0.091,-0.080,-0.040
-0.019,0.070,0.089,-0.026,-0.054,0.080,-0.038,-0.120,-0.108,-0.102,-0.079,-0.040
-0.015,0.070,0.085,-0.028,-0.050,0.077,-0.075,-0.160,-0.150,-0.135,-0.075,-0.040
-0.015,0.070,0.085,-0.028,-0.050,0.077,-0.073,-0.158,-0.148,-0.132,-0.075,-0.040
-0.012,0.070,0.082,-0.029,-0.047,0.076,-0.069,-0.151,-0.143,-0.129,-0.075,-0.040
-0.010,0.070,0.080,-0.030,-0.045,0.075,-0.068,-0.148,-0.146,-0.129,-0.075,-0.040
-0.009,0.070,0.079,-0.030,-0.044,0.075,-0.065,-0.145,-0.145,-0.124,-0.075,-0.040
-0.005,0.070,0.075,-0.033,-0.040,0.072,-0.065,-0.145,-0.145,-0.125,-0.075,-0.040
-0.005,0.070,0.075,-0.033,-0.040,0.072,-0.061,-0.141,-0.145,-0.126,-0.071,-0.040
-0.002,0.070,0.072,-0.034,-0.037,0.070,-0.060,-0.136,-0.145,-0.122,-0.070,-0.040
0.001,0.071,0.071,-0.036,-0.035,0.071,-0.058,-0.135,-0.145,-0.120,-0.070,-0.040
-0.001,0.067,0.068,-0.033,-0.034,0.067,-0.055,-0.134,-0.144,-0.119,-0.070,-0.040
-0.005,0.050,0.055,-0.023,-0.030,0.052,-0.055,-0.130,-0.140,-0.115,-0.070,-0.040
-0.009,0.038,0.047,-0.015,-0.029,0.043,-0.051,-0.126,-0.140,-0.115,-0.069,-0.040
-0.013,0.023,0.036,-0.005,-0.025,0.029,-0.050,-0.124,-0.140,-0.115,-0.076,-0.040
-0.017,0.008,0.026,0.005,-0.022,0.017,-0.048,-0.127,-0.140,-0.117,-0.083,-0.039
-0.020,-0.003,0.017,0.011,-0.019,0.007,-0.045,-0.130,-0.140,-0.120,-0.085,-0.041
-0.020,-0.015,0.005,0.017,-0.012,-0.005,-0.045,-0.130,-0.140,-0.125,-0.090,-0.050
-0.023,-0.027,-0.004,0.025,-0.009,-0.015,-0.045,-0.130,-0.141,-0.150,-0.107,-0.063
-0.036,-0.039,-0.003,0.038,-0.017,-0.021,-0.045,-0.130,-0.137,-0.161,-0.112,-0.068
-0.052,-0.050,0.002,0.050,-0.026,-0.023,-0.045,-0.130,-0.149,-0.160,-0.109,-0.074
-0.062,-0.056,0.006,0.059,-0.034,-0.025,-0.045,-0.130,-0.168,-0.160,-0.110,-0.081
-0.070,-0.060,0.010,0.065,-0.040,-0.025,-0.045,-0.130,-0.170,-0.160,-0.110,-0.085
-0.071,-0.060,0.011,0.065,-0.041,-0.025,-0.045,-0.130,-0.170,-0.164,-0.109,-0.089
-0.065,-0.061,0.005,0.063,-0.035,-0.028,-0.042,-0.130,-0.173,-0.165,-0.118,-0.090
-0.054,-0.058,-0.004,0.056,-0.025,-0.031,-0.039,-0.131,-0.176,-0.165,-0.130,-0.092
-0.052,-0.064,-0.012,0.058,-0.020,-0.038,-0.040,-0.129,-0.175,-0.165,-0.136,-0.095
-0.065,-0.085,-0.020,0.075,-0.022,-0.052,-0.040,-0.130,-0.180,-0.170,-0.140,-0.095
-0.059,-0.087,-0.028,0.073,-0.015,-0.057,-0.040,-0.151,-0.197,-0.187,-0.148,-0.103
-0.043,-0.081,-0.037,0.062,-0.003,-0.058,-0.040,-0.154,-0.198,-0.189,-0.154,-0.110
-0.058,-0.099,-0.041,0.079,-0.009,-0.069,-0.040,-0.149,-0.194,-0.184,-0.153,-0.108
-0.073,-0.122,-0.050,0.098,-0.012,-0.085,-0.040,-0.150,-0.195,-0.185,-0.150,-0.105
-0.045,-0.115,-0.070,0.080,0.013,-0.092,-0.040,-0.150,-0.195,-0.185,-0.150,-0.105
-0.044,-0.111,-0.067,0.078,0.012,-0.088,-0.036,-0.150,-0.195,-0.185,-0.150,-0.105
-0.043,-0.107,-0.064,0.076,0.011,-0.085,-0.035,-0.151,-0.195,-0.185,-0.151,-0.105
-0.038,-0.103,-0.065,0.071,0.014,-0.084,-0.035,-0.148,-0.195,-0.185,-0.148,-0.105
-0.034,-0.099,-0.065,0.067,0.016,-0.081,-0.035,-0.145,-0.195,-0.185,-0.145,-0.104
-0.030,-0.095,-0.065,0.063,0.018,-0.080,-0.035,-0.145,-0.195,-0.185,-0.145,-0.100
-0.031,-0.096,-0.065,0.064,0.017,-0.081,-0.035,-0.145,-0.195,-0.185,-0.145,-0.100
-0.022,-0.087,-0.065,0.055,0.022,-0.076,-0.035,-0.145,-0.195,-0.185,-0.146,-0.100
-0.042,-0.107,-0.065,0.075,0.012,-0.086,-0.035,-0.145,-0.195,-0.185,-0.143,-0.100
-0.073,-0.138,-0.065,0.106,-0.004,-0.102,-0.034,-0.145,-0.195,-0.185,-0.140,-0.100
-0.065,-0.130,-0.065,0.098,0.000,-0.097,-0.030,-0.145,-0.195,-0.185,-0.140,-0.100
-0.065,-0.130,-0.065,0.098,0.000,-0.097,-0.030,-0.141,-0.191,-0.181,-0.140,-0.100
-0.062,-0.127,-0.065,0.095,0.002,-0.096,-0.030,-0.140,-0.190,-0.180,-0.140,-0.097
-0.060,-0.125,-0.065,0.093,0.003,-0.095,-0.030,-0.140,-0.190,-0.180,-0.140,-0.094
-0.059,-0.124,-0.065,0.092,0.003,-0.095,-0.030,-0.140,-0.190,-0.180,-0.139,-0.095
-0.055,-0.120,-0.065,0.088,0.005,-0.092,-0.030,-0.140,-0.190,-0.180,-0.135,-0.095
-0.055,-0.120,-0.065,0.088,0.005,-0.092,-0.030,-0.140,-0.190,-0.180,-0.135,-0.095
-0.056,-0.121,-0.065,0.089,0.005,-0.092,-0.031,-0.137,-0.190,-0.180,-0.135,-0.096
-0.053,-0.118,-0.065,0.086,0.006,-0.091,-0.028,-0.134,-0.190,-0.180,-0.135,-0.093
-0.050,-0.115,-0.065,0.083,0.008,-0.090,-0.025,-0.135,-0.190,-0.180,-0.134,-0.090
-0.050,-0.115,-0.065,0.083,0.008,-0.090,-0.025,-0.135,-0.190,-0.180,-0.130,-0.090
-0.046,-0.111,-0.065,0.079,0.010,-0.087,-0.025,-0.135,-0.190,-0.180,-0.130,-0.090
-0.045,-0.110,-0.065,0.078,0.010,-0.087,-0.025,-0.135,-0.190,-0.180,-0.130,-0.090
-0.043,-0.108,-0.065,0.076,0.011,-0.086,-0.025,-0.136,-0.191,-0.180,-0.131,-0.091
-0.039,-0.105,-0.065,0.073,0.013,-0.085,-0.025,-0.132,-0.188,-0.181,-0.129,-0.089
-0.040,-0.105,-0.065,0.073,0.013,-0.085,-0.025,-0.115,-0.180,-0.185,-0.130,-0.090
-0.040,-0.105,-0.065,0.073,0.013,-0.085,-0.024,-0.103,-0.176,-0.185,-0.154,-0.112
-0.040,-0.105,-0.066,0.073,0.013,-0.085,-0.030,-0.090,-0.171,-0.188,-0.169,-0.112
-0.057,-0.120,-0.063,0.089,0.003,-0.091,-0.008,-0.083,-0.170,-0.191,-0.169,-0.117
-0.068,-0.145,-0.078,0.107,0.005,-0.112,0.033,-0.059,-0.159,-0.188,-0.181,-0.149
-0.050,-0.155,-0.105,0.103,0.028,-0.130,0.070,0.020,-0.125,-0.180,-0.205,-0.175
-0.068,-0.144,-0.076,0.106,0.004,-0.109,0.142,0.114,-0.092,-0.176,-0.190,-0.164
-0.092,-0.132,-0.040,0.112,-0.025,-0.085,0.166,0.153,-0.065,-0.168,-0.176,-0.153
-0.092,-0.116,-0.024,0.104,-0.033,-0.070,0.186,0.191,-0.047,-0.165,-0.161,-0.145
-0.094,-0.113,-0.019,0.104,-0.038,-0.066,0.229,0.273,-0.012,-0.153,-0.149,-0.140
-0.085,-0.095,-0.010,0.090,-0.037,-0.052,0.250,0.370,0.070,-0.095,-0.135,-0.130
0.032,0.032,0.000,-0.032,0.016,0.015,0.272,0.482,0.186,-0.001,-0.057,-0.079
0.071,0.068,-0.003,-0.070,0.036,0.033,0.307,0.626,0.332,0.105,0.021,-0.030
0.087,0.116,0.029,-0.102,0.029,0.073,0.322,0.747,0.505,0.251,0.125,0.044
0.161,0.248,0.087,-0.205,0.036,0.168,0.322,0.805,0.674,0.428,0.265,0.152
0.225,0.365,0.140,-0.295,0.042,0.252,0.320,0.835,0.825,0.600,0.410,0.265
0.231,0.466,0.235,-0.349,-0.002,0.350,0.260,0.872,1.012,0.807,0.579,0.403
0.280,0.569,0.289,-0.425,-0.005,0.429,0.208,0.859,1.200,1.013,0.733,0.521
0.388,0.733,0.345,-0.560,0.021,0.539,0.105,0.824,1.414,1.239,0.913,0.665
0.474,0.923,0.449,-0.698,0.013,0.686,-0.043,0.798,1.653,1.494,1.128,0.844
0.510,1.080,0.570,-0.795,-0.030,0.825,-0.180,0.715,1.850,1.740,1.335,1.010
0.571,1.250,0.679,-0.910,-0.054,0.964,-0.366,0.482,1.948,1.927,1.514,1.156
0.534,1.276,0.742,-0.905,-0.104,1.008,-0.402,0.274,1.911,1.918,1.548,1.170
0.441,1.166,0.725,-0.804,-0.142,0.945,-0.369,0.152,1.868,1.862,1.453,1.075
0.395,1.054,0.659,-0.725,-0.132,0.857,-0.363,0.016,1.769,1.776,1.314,0.957
0.360,0.965,0.605,-0.663,-0.123,0.785,-0.350,-0.175,1.470,1.520,1.150,0.840
0.219,0.763,0.544,-0.491,-0.163,0.653,-0.344,-0.290,1.106,1.196,0.916,0.676
0.124,0.544,0.420,-0.334,-0.149,0.482,-0.320,-0.436,0.633,0.806,0.646,0.492
0.074,0.366,0.292,-0.220,-0.109,0.329,-0.308,-0.526,0.131,0.370,0.380,0.324
-0.002,0.213,0.215,-0.105,-0.109,0.214,-0.263,-0.469,-0.263,-0.003,0.154,0.181
-0.070,0.080,0.150,-0.005,-0.110,0.115,-0.150,-0.345,-0.450,-0.205,0.005,0.070
-0.037,-0.006,0.031,0.022,-0.034,0.013,-0.106,-0.260,-0.409,-0.264,-0.058,0.008
-0.009,-0.086,-0.077,0.048,0.034,-0.081,-0.076,-0.128,-0.355,-0.250,-0.112,-0.049
-0.031,-0.175,-0.144,0.103,0.057,-0.160,-0.031,0.018,-0.287,-0.223,-0.162,-0.108
-0.032,-0.223,-0.191,0.127,0.080,-0.207,0.024,0.123,-0.206,-0.205,-0.181,-0.138
0.015,-0.200,-0.215,0.093,0.115,-0.207,0.075,0.195,-0.175,-0.185,-0.170,-0.130
-0.009,-0.187,-0.178,0.099,0.085,-0.183,0.099,0.224,-0.138,-0.164,-0.161,-0.126
-0.040,-0.173,-0.133,0.107,0.047,-0.153,0.095,0.220,-0.118,-0.152,-0.157,-0.122
-0.045,-0.158,-0.114,0.101,0.035,-0.136,0.087,0.212,-0.111,-0.148,-0.152,-0.118
-0.039,-0.147,-0.108,0.093,0.035,-0.128,0.083,0.199,-0.103,-0.143,-0.143,-0.114
-0.035,-0.135,-0.100,0.085,0.033,-0.117,0.075,0.165,-0.095,-0.135,-0.135,-0.110
-0.031,-0.127,-0.096,0.079,0.033,-0.111,0.071,0.131,-0.083,-0.131,-0.131,-0.106
-0.030,-0.120,-0.090,0.075,0.030,-0.105,0.064,0.114,-0.074,-0.124,-0.127,-0.101
-0.028,-0.109,-0.081,0.069,0.026,-0.094,0.058,0.107,-0.065,-0.118,-0.125,-0.100
-0.024,-0.098,-0.074,0.061,0.025,-0.085,0.053,0.097,-0.060,-0.114,-0.124,-0.099
-0.020,-0.090,-0.070,0.055,0.025,-0.080,0.050,0.085,-0.065,-0.110,-0.120,-0.095
-0.015,-0.081,-0.066,0.048,0.026,-0.073,0.071,0.078,-0.065,-0.110,-0.120,-0.095
-0.021,-0.083,-0.061,0.052,0.020,-0.072,0.072,0.059,-0.067,-0.106,-0.117,-0.092
-0.024,-0.084,-0.060,0.054,0.018,-0.072,0.060,0.032,-0.074,-0.107,-0.115,-0.090
-0.020,-0.079,-0.059,0.050,0.020,-0.069,0.053,0.011,-0.063,-0.099,-0.114,-0.089
-0.025,-0.080,-0.055,0.053,0.015,-0.067,0.045,0.000,-0.040,-0.085,-0.110,-0.085
-0.030,-0.081,-0.050,0.055,0.010,-0.065,0.037,-0.008,-0.085,-0.131,-0.110,-0.085
-0.027,-0.077,-0.050,0.052,0.012,-0.063,0.028,-0.016,-0.095,-0.140,-0.107,-0.082
-0.026,-0.075,-0.048,0.051,0.011,-0.061,0.024,-0.025,-0.080,-0.124,-0.105,-0.080
-0.030,-0.075,-0.045,0.053,0.008,-0.060,0.017,-0.030,-0.080,-0.118,-0.104,-0.079
-0.030,-0.075,-0.045,0.053,0.008,-0.060,0.015,-0.025,-0.075,-0.110,-0.100,-0.075
-0.035,-0.075,-0.041,0.055,0.004,-0.058,0.057,-0.025,-0.067,-0.102,-0.100,-0.075
-0.032,-0.072,-0.040,0.052,0.004,-0.056,0.064,-0.026,-0.062,-0.094,-0.097,-0.072
-0.031,-0.069,-0.038,0.051,0.003,-0.054,0.049,-0.023,-0.058,-0.085,-0.095,-0.070
-0.035,-0.070,-0.035,0.053,0.000,-0.052,0.044,-0.020,-0.054,-0.081,-0.094,-0.069
-0.035,-0.070,-0.035,0.053,0.000,-0.052,0.040,-0.020,-0.050,-0.090,-0.090,-0.065
-0.040,-0.070,-0.031,0.055,-0.004,-0.051,0.032,-0.020,-0.050,-0.095,-0.090,-0.065
-0.037,-0.067,-0.030,0.052,-0.003,-0.048,0.024,-0.017,-0.051,-0.093,-0.091,-0.062
-0.036,-0.064,-0.028,0.050,-0.004,-0.046,0.017,-0.014,-0.048,-0.087,-0.088,-0.060
-0.041,-0.065,-0.025,0.054,-0.007,-0.045,0.016,-0.015,-0.045,-0.085,-0.085,-0.059
-0.040,-0.065,-0.025,0.053,-0.007,-0.045,0.025,-0.015,-0.045,-0.085,-0.085,-0.055
-0.040,-0.061,-0.021,0.050,-0.009,-0.041,0.034,-0.014,-0.045,-0.081,-0.081,-0.055
-0.040,-0.060,-0.020,0.050,-0.010,-0.040,0.033,-0.021,-0.042,-0.080,-0.080,-0.052
-0.041,-0.060,-0.019,0.051,-0.011,-0.039,0.029,-0.028,-0.040,-0.079,-0.078,-0.050
-0.047,-0.060,-0.013,0.054,-0.017,-0.036,0.030,-0.031,-0.040,-0.074,-0.074,-0.049
-0.045,-0.060,-0.015,0.053,-0.015,-0.037,0.030,-0.035,-0.040,-0.070,-0.075,-0.045
-0.007,-0.056,-0.049,0.032,0.021,-0.052,0.030,-0.040,-0.041,-0.070,-0.075,-0.045
0.001,-0.054,-0.055,0.027,0.029,-0.055,0.030,-0.038,-0.035,-0.067,-0.072,-0.042
-0.007,-0.056,-0.048,0.031,0.021,-0.051,0.030,-0.033,-0.026,-0.065,-0.068,-0.040
-0.003,-0.054,-0.051,0.029,0.024,-0.052,0.030,-0.029,-0.018,-0.064,-0.064,-0.039
-0.005,-0.055,-0.050,0.030,0.023,-0.052,0.030,-0.025,-0.010,-0.060,-0.060,-0.035
-0.026,-0.072,-0.046,0.050,0.010,-0.059,0.026,-0.025,-0.002,-0.060,-0.060,-0.035
-0.029,-0.073,-0.044,0.052,0.008,-0.059,0.025,-0.023,0.006,-0.057,-0.058,-0.036
-0.024,-0.069,-0.046,0.047,0.011,-0.057,0.025,-0.017,0.013,-0.055,-0.052,-0.033
-0.025,-0.069,-0.044,0.048,0.010,-0.056,0.025,-0.015,0.014,-0.054,-0.050,-0.030
-0.025,-0.065,-0.040,0.045,0.008,-0.052,0.025,-0.015,0.010,-0.050,-0.050,-0.030
-0.026,-0.065,-0.040,0.045,0.008,-0.052,0.025,-0.011,0.010,-0.050,-0.046,-0.026
-0.021,-0.062,-0.041,0.041,0.010,-0.051,0.025,-0.006,0.010,-0.045,-0.041,-0.024
-0.022,-0.060,-0.038,0.041,0.008,-0.049,0.025,-0.005,0.009,-0.035,-0.040,-0.026
-0.024,-0.059,-0.035,0.042,0.005,-0.046,0.024,-0.004,0.011,-0.029,-0.039,-0.024
-0.015,-0.050,-0.035,0.033,0.010,-0.042,0.020,0.005,0.020,-0.025,-0.035,-0.020
-0.006,-0.042,-0.035,0.024,0.015,-0.038,0.020,0.009,0.028,-0.017,-0.031,-0.020
-0.004,-0.035,-0.032,0.020,0.014,-0.034,0.020,0.016,0.036,-0.008,-0.027,-0.017
0.007,-0.022,-0.029,0.008,0.018,-0.026,0.020,0.022,0.044,-0.003,-0.025,-0.014
-0.004,-0.034,-0.030,0.019,0.014,-0.032,0.020,0.027,0.052,0.001,-0.024,-0.015
-0.025,-0.055,-0.030,0.040,0.003,-0.042,0.020,0.035,0.060,0.005,-0.020,-0.015
0.042,0.016,-0.026,-0.028,0.034,-0.004,0.020,0.039,0.068,0.010,-0.016,-0.011
-0.016,-0.040,-0.024,0.029,0.005,-0.032,0.020,0.043,0.074,0.008,-0.015,-0.009
-0.064,-0.089,-0.026,0.077,-0.018,-0.057,0.020,0.045,0.074,0.002,-0.014,-0.011
-0.021,-0.046,-0.024,0.034,0.002,-0.035,0.019,0.045,0.077,0.000,-0.009,-0.009
-0.010,-0.030,-0.020,0.020,0.005,-0.025,0.015,0.045,0.085,0.005,-0.005,-0.005
-0.006,-0.025,-0.020,0.016,0.007,-0.022,0.015,0.044,0.088,0.009,-0.005,-0.005
-0.005,-0.025,-0.020,0.015,0.008,-0.022,0.016,0.050,0.102,0.013,-0.002,-0.005
-0.005,-0.025,-0.020,0.015,0.008,-0.022,0.013,0.058,0.114,0.017,0.002,-0.005
-0.006,-0.025,-0.019,0.016,0.007,-0.022,0.010,0.059,0.116,0.021,0.006,-0.005
-0.010,-0.025,-0.015,0.018,0.003,-0.020,0.010,0.055,0.120,0.025,0.010,-0.005
-0.011,-0.026,-0.015,0.019,0.002,-0.020,0.010,0.055,0.125,0.030,0.014,-0.006
-0.034,-0.050,-0.016,0.043,-0.009,-0.033,0.010,0.055,0.123,0.028,0.019,0.000
-0.029,-0.042,-0.013,0.036,-0.007,-0.027,0.008,0.070,0.133,0.038,0.018,0.009
0.017,0.007,-0.010,-0.012,0.014,-0.001,0.005,0.087,0.155,0.061,0.024,0.017
0.050,0.040,-0.010,-0.045,0.030,0.015,0.005,0.090,0.170,0.075,0.045,0.025
0.055,0.045,-0.010,-0.050,0.032,0.017,0.005,0.114,0.182,0.078,0.050,0.033
0.055,0.045,-0.010,-0.050,0.032,0.017,0.002,0.129,0.195,0.093,0.052,0.041
0.053,0.045,-0.008,-0.049,0.030,0.018,0.000,0.130,0.202,0.099,0.058,0.047
0.050,0.046,-0.005,-0.048,0.027,0.021,0.000,0.139,0.216,0.105,0.069,0.051
0.055,0.050,-0.005,-0.052,0.030,0.022,0.000,0.155,0.245,0.135,0.085,0.055
0.056,0.050,-0.005,-0.052,0.031,0.022,0.000,0.152,0.250,0.137,0.082,0.054
0.052,0.050,-0.002,-0.051,0.027,0.024,-0.003,0.146,0.251,0.132,0.078,0.061
0.049,0.050,0.000,-0.050,0.024,0.025,-0.006,0.161,0.262,0.142,0.085,0.067
0.059,0.059,0.000,-0.059,0.029,0.029,-0.005,0.183,0.280,0.159,0.099,0.072
0.080,0.080,0.000,-0.080,0.040,0.040,-0.005,0.190,0.300,0.170,0.115,0.085
0.086,0.085,-0.001,-0.085,0.043,0.041,-0.005,0.206,0.321,0.181,0.128,0.097
0.081,0.089,0.008,-0.085,0.036,0.048,-0.008,0.217,0.334,0.197,0.132,0.106
0.068,0.088,0.020,-0.078,0.024,0.053,-0.012,0.226,0.348,0.212,0.143,0.115
0.060,0.096,0.036,-0.078,0.012,0.066,-0.016,0.247,0.372,0.232,0.165,0.130
0.065,0.125,0.060,-0.095,0.002,0.092,-0.020,0.270,0.400,0.260,0.180,0.145
0.058,0.124,0.065,-0.091,-0.004,0.094,-0.024,0.268,0.410,0.266,0.185,0.142
0.047,0.112,0.065,-0.080,-0.009,0.088,-0.029,0.261,0.410,0.265,0.182,0.137
0.064,0.130,0.065,-0.097,-0.001,0.097,-0.030,0.276,0.428,0.282,0.196,0.149
0.104,0.169,0.065,-0.137,0.020,0.116,-0.031,0.299,0.454,0.303,0.219,0.168
0.125,0.190,0.065,-0.158,0.030,0.127,-0.035,0.305,0.460,0.310,0.225,0.175
0.126,0.191,0.065,-0.159,0.030,0.127,-0.035,0.308,0.472,0.326,0.237,0.187
0.124,0.189,0.065,-0.157,0.030,0.127,-0.038,0.316,0.484,0.337,0.246,0.196
0.125,0.190,0.065,-0.158,0.030,0.127,-0.040,0.322,0.496,0.343,0.256,0.204
0.124,0.189,0.065,-0.157,0.030,0.127,-0.041,0.326,0.507,0.354,0.267,0.211
0.125,0.190,0.065,-0.158,0.030,0.127,-0.045,0.330,0.515,0.370,0.275,0.215
0.144,0.209,0.065,-0.177,0.040,0.137,-0.045,0.332,0.529,0.385,0.290,0.230
0.198,0.263,0.065,-0.231,0.066,0.164,-0.045,0.354,0.555,0.409,0.312,0.252
0.224,0.289,0.065,-0.257,0.079,0.177,-0.045,0.366,0.566,0.424,0.324,0.264
0.213,0.278,0.065,-0.246,0.074,0.171,-0.045,0.359,0.558,0.425,0.326,0.265
0.215,0.280,0.065,-0.248,0.075,0.172,-0.045,0.360,0.555,0.430,0.330,0.265
0.215,0.280,0.065,-0.248,0.075,0.172,-0.045,0.360,0.555,0.434,0.334,0.269
0.215,0.280,0.065,-0.248,0.075,0.172,-0.042,0.360,0.552,0.436,0.336,0.270
0.215,0.280,0.065,-0.248,0.075,0.172,-0.040,0.360,0.550,0.433,0.333,0.271
0.215,0.280,0.065,-0.248,0.075,0.172,-0.039,0.361,0.550,0.430,0.338,0.276
0.215,0.280,0.065,-0.248,0.075,0.172,-0.035,0.360,0.545,0.430,0.355,0.280
0.215,0.280,0.065,-0.248,0.075,0.172,-0.035,0.348,0.540,0.426,0.352,0.280
0.215,0.280,0.066,-0.248,0.075,0.172,-0.036,0.338,0.540,0.425,0.346,0.280
0.217,0.280,0.063,-0.248,0.077,0.171,-0.033,0.331,0.538,0.423,0.343,0.280
0.221,0.281,0.060,-0.251,0.081,0.170,-0.030,0.323,0.535,0.420,0.339,0.280
0.220,0.280,0.060,-0.250,0.080,0.170,-0.030,0.315,0.535,0.420,0.335,0.280
0.204,0.264,0.060,-0.234,0.072,0.162,-0.026,0.307,0.520,0.404,0.331,0.280
0.190,0.250,0.060,-0.220,0.065,0.155,-0.024,0.300,0.504,0.391,0.328,0.282
0.179,0.239,0.060,-0.209,0.060,0.149,-0.026,0.287,0.484,0.377,0.318,0.273
0.167,0.227,0.061,-0.197,0.053,0.144,-0.024,0.272,0.460,0.362,0.301,0.256
0.155,0.215,0.060,-0.185,0.047,0.137,-0.020,0.260,0.440,0.350,0.290,0.245
0.151,0.199,0.048,-0.175,0.051,0.123,-0.020,0.248,0.416,0.330,0.278,0.233
0.148,0.186,0.038,-0.168,0.055,0.112,-0.017,0.237,0.393,0.311,0.267,0.221
0.141,0.172,0.032,-0.157,0.055,0.101,-0.014,0.219,0.363,0.284,0.249,0.207
0.135,0.157,0.022,-0.146,0.056,0.089,-0.015,0.194,0.326,0.246,0.223,0.191
0.135,0.145,0.010,-0.140,0.062,0.077,-0.015,0.175,0.295,0.215,0.200,0.175
0.127,0.129,0.002,-0.128,0.062,0.065,-0.011,0.162,0.267,0.198,0.183,0.159
0.119,0.113,-0.006,-0.116,0.062,0.053,-0.009,0.154,0.241,0.183,0.171,0.146
0.111,0.097,-0.014,-0.104,0.062,0.041,-0.011,0.146,0.219,0.167,0.157,0.133
0.103,0.081,-0.022,-0.092,0.062,0.029,-0.009,0.139,0.201,0.152,0.142,0.116
0.095,0.065,-0.030,-0.080,0.062,0.017,-0.005,0.130,0.185,0.135,0.130,0.100
0.082,0.049,-0.034,-0.065,0.058,0.007,-0.005,0.107,0.158,0.107,0.110,0.084
0.077,0.036,-0.041,-0.056,0.058,-0.002,-0.005,0.080,0.128,0.081,0.089,0.067
0.071,0.022,-0.049,-0.046,0.060,-0.013,-0.005,0.063,0.102,0.060,0.072,0.055
0.063,0.007,-0.057,-0.034,0.060,-0.025,-0.005,0.053,0.080,0.040,0.056,0.048
0.055,-0.005,-0.060,-0.025,0.058,-0.032,-0.005,0.045,0.060,0.020,0.040,0.040
0.039,-0.017,-0.056,-0.011,0.048,-0.036,-0.005,0.037,0.044,0.007,0.024,0.032
0.025,-0.029,-0.054,0.003,0.040,-0.042,-0.006,0.026,0.031,-0.001,0.010,0.024
0.016,-0.040,-0.056,0.013,0.036,-0.048,-0.003,0.015,0.019,-0.011,0.000,0.016
-0.001,-0.054,-0.053,0.028,0.026,-0.053,0.000,0.008,0.007,-0.022,-0.006,0.008
-0.010,-0.065,-0.055,0.038,0.023,-0.060,0.000,0.000,-0.005,-0.030,-0.010,0.000
0.031,-0.058,-0.088,0.014,0.060,-0.073,0.000,-0.008,-0.013,-0.050,-0.018,-0.008
0.013,-0.085,-0.098,0.037,0.056,-0.091,0.000,-0.013,-0.021,-0.063,-0.023,-0.013
-0.006,-0.099,-0.094,0.053,0.044,-0.096,0.000,-0.017,-0.029,-0.067,-0.029,-0.017
0.014,-0.082,-0.095,0.034,0.055,-0.088,0.000,-0.021,-0.037,-0.071,-0.037,-0.021
0.020,-0.075,-0.095,0.028,0.058,-0.085,0.000,-0.025,-0.045,-0.075,-0.040,-0.025
0.031,-0.064,-0.095,0.017,0.063,-0.079,0.000,-0.029,-0.054,-0.080,-0.040,-0.029
0.045,-0.050,-0.095,0.003,0.070,-0.072,0.003,-0.033,-0.057,-0.079,-0.039,-0.030
0.036,-0.059,-0.095,0.012,0.066,-0.077,0.006,-0.037,-0.066,-0.083,-0.044,-0.032
0.000,-0.095,-0.095,0.048,0.048,-0.095,0.005,-0.041,-0.077,-0.091,-0.052,-0.035
-0.030,-0.125,-0.095,0.078,0.033,-0.110,0.005,-0.045,-0.080,-0.095,-0.055,-0.035
-0.027,-0.122,-0.095,0.075,0.034,-0.108,0.005,-0.049,-0.084,-0.099,-0.059,-0.043
-0.023,-0.119,-0.096,0.071,0.036,-0.107,0.005,-0.054,-0.089,-0.100,-0.063,-0.050
-0.028,-0.120,-0.092,0.075,0.032,-0.106,0.005,-0.054,-0.090,-0.102,-0.067,-0.048
-0.020,-0.120,-0.100,0.070,0.040,-0.110,0.005,-0.049,-0.090,-0.106,-0.071,-0.045
0.005,-0.120,-0.125,0.058,0.065,-0.122,0.005,-0.050,-0.095,-0.105,-0.075,-0.045
0.002,-0.120,-0.122,0.059,0.062,-0.121,0.005,-0.051,-0.100,-0.101,-0.076,-0.045
-0.001,-0.120,-0.119,0.060,0.059,-0.119,0.003,-0.047,-0.097,-0.099,-0.072,-0.045
0.000,-0.120,-0.120,0.060,0.060,-0.120,-0.005,-0.045,-0.094,-0.101,-0.069,-0.045
0.000,-0.120,-0.120,0.060,0.060,-0.120,0.000,-0.043,-0.095,-0.099,-0.070,-0.044
0.000,-0.120,-0.120,0.060,0.060,-0.120,0.025,-0.045,-0.095,-0.100,-0.070,-0.045
-0.007,-0.127,-0.120,0.067,0.057,-0.123,0.022,-0.079,-0.095,-0.121,-0.070,-0.062
-0.023,-0.143,-0.120,0.083,0.048,-0.131,0.019,-0.085,-0.092,-0.124,-0.070,-0.064
-0.033,-0.153,-0.120,0.093,0.044,-0.137,0.021,-0.079,-0.089,-0.119,-0.070,-0.059
-0.036,-0.156,-0.119,0.096,0.042,-0.137,0.019,-0.079,-0.090,-0.120,-0.070,-0.060
-0.045,-0.160,-0.115,0.103,0.035,-0.137,0.015,-0.075,-0.090,-0.120,-0.070,-0.060
-0.049,-0.164,-0.115,0.107,0.033,-0.139,0.015,-0.075,-0.090,-0.116,-0.070,-0.060
-0.051,-0.166,-0.115,0.109,0.033,-0.141,0.015,-0.072,-0.087,-0.114,-0.070,-0.060
-0.048,-0.163,-0.115,0.106,0.034,-0.139,0.015,-0.070,-0.084,-0.116,-0.070,-0.060
-0.045,-0.160,-0.115,0.103,0.035,-0.137,0.014,-0.069,-0.085,-0.114,-0.070,-0.060
-0.045,-0.160,-0.115,0.103,0.035,-0.137,0.010,-0.065,-0.085,-0.110,-0.070,-0.060
-0.041,-0.156,-0.115,0.099,0.038,-0.135,0.010,-0.065,-0.085,-0.110,-0.066,-0.056
-0.041,-0.155,-0.114,0.098,0.038,-0.135,0.010,-0.062,-0.086,-0.111,-0.065,-0.055
-0.036,-0.153,-0.117,0.095,0.041,-0.135,0.010,-0.060,-0.083,-0.108,-0.065,-0.055
-0.029,-0.150,-0.120,0.089,0.046,-0.135,0.009,-0.059,-0.080,-0.105,-0.065,-0.055
-0.030,-0.150,-0.120,0.090,0.045,-0.135,0.005,-0.055,-0.080,-0.105,-0.065,-0.055
-0.026,-0.146,-0.120,0.086,0.047,-0.132,0.005,-0.055,-0.080,-0.105,-0.065,-0.055
-0.022,-0.145,-0.123,0.084,0.051,-0.134,0.006,-0.052,-0.081,-0.102,-0.065,-0.055
-0.017,-0.143,-0.126,0.081,0.054,-0.134,0.003,-0.050,-0.078,-0.099,-0.065,-0.055
-0.015,-0.140,-0.125,0.078,0.055,-0.132,0.000,-0.049,-0.075,-0.100,-0.065,-0.054
-0.015,-0.140,-0.125,0.078,0.055,-0.132,0.000,-0.045,-0.075,-0.100,-0.065,-0.050
-0.007,-0.136,-0.129,0.071,0.062,-0.132,0.000,-0.045,-0.075,-0.096,-0.065,-0.050
-0.004,-0.135,-0.130,0.069,0.064,-0.132,0.001,-0.045,-0.075,-0.094,-0.065,-0.050
-0.005,-0.135,-0.130,0.070,0.063,-0.132,-0.002,-0.045,-0.075,-0.096,-0.065,-0.050
-0.005,-0.135,-0.130,0.070,0.063,-0.132,-0.005,-0.045,-0.076,-0.094,-0.066,-0.050
-0.005,-0.135,-0.130,0.070,0.063,-0.132,-0.005,-0.045,-0.080,-0.090,-0.070,-0.050
-0.010,-0.135,-0.126,0.073,0.059,-0.131,-0.005,-0.045,-0.080,-0.090,-0.070,-0.050
-0.007,-0.132,-0.125,0.070,0.059,-0.128,-0.004,-0.045,-0.080,-0.090,-0.070,-0.050
-0.004,-0.129,-0.125,0.067,0.060,-0.127,-0.007,-0.045,-0.080,-0.090,-0.070,-0.050
-0.005,-0.130,-0.125,0.068,0.060,-0.127,-0.010,-0.045,-0.080,-0.089,-0.070,-0.051
-0.005,-0.130,-0.125,0.068,0.060,-0.127,-0.010,-0.045,-0.080,-0.090,-0.070,-0.055
-0.006,-0.130,-0.124,0.068,0.059,-0.127,-0.014,-0.045,-0.080,-0.107,-0.070,-0.055
-0.001,-0.130,-0.129,0.066,0.064,-0.129,-0.015,-0.045,-0.080,-0.109,-0.070,-0.055
-0.017,-0.130,-0.113,0.074,0.048,-0.121,-0.017,-0.045,-0.080,-0.104,-0.070,-0.055
-0.018,-0.129,-0.112,0.074,0.047,-0.120,-0.021,-0.045,-0.080,-0.105,-0.070,-0.055
0.025,-0.125,-0.150,0.050,0.088,-0.137,-0.020,-0.045,-0.080,-0.105,-0.070,-0.055
0.005,-0.125,-0.130,0.060,0.068,-0.127,-0.016,-0.045,-0.080,-0.105,-0.070,-0.055
-0.027,-0.125,-0.098,0.076,0.036,-0.111,-0.015,-0.045,-0.080,-0.106,-0.070,-0.055
-0.039,-0.125,-0.086,0.082,0.024,-0.105,-0.015,-0.045,-0.080,-0.103,-0.070,-0.055
-0.048,-0.125,-0.077,0.087,0.015,-0.100,-0.015,-0.045,-0.080,-0.100,-0.070,-0.055
-0.055,-0.125,-0.070,0.090,0.008,-0.097,-0.015,-0.045,-0.080,-0.100,-0.070,-0.055
-0.024,-0.121,-0.097,0.073,0.036,-0.108,-0.015,-0.045,-0.080,-0.100,-0.070,-0.055
0.005,-0.120,-0.124,0.058,0.064,-0.122,-0.015,-0.045,-0.080,-0.100,-0.070,-0.055
0.009,-0.120,-0.130,0.055,0.070,-0.125,-0.015,-0.045,-0.080,-0.100,-0.070,-0.055
0.004,-0.120,-0.124,0.058,0.064,-0.122,-0.015,-0.045,-0.080,-0.100,-0.070,-0.055
0.005,-0.120,-0.125,0.058,0.065,-0.122,-0.015,-0.045,-0.080,-0.100,-0.070,-0.055
0.001,-0.120,-0.121,0.060,0.061,-0.120,-0.015,-0.043,-0.080,-0.096,-0.070,-0.055
0.001,-0.119,-0.120,0.059,0.060,-0.120,-0.015,-0.057,-0.080,-0.095,-0.070,-0.055
-0.004,-0.122,-0.118,0.063,0.057,-0.120,-0.015,-0.069,-0.080,-0.095,-0.070,-0.055
-0.019,-0.134,-0.114,0.077,0.047,-0.124,-0.014,-0.070,-0.080,-0.095,-0.070,-0.055
-0.035,-0.150,-0.115,0.093,0.040,-0.132,-0.010,-0.070,-0.080,-0.095,-0.070,-0.055
-0.039,-0.155,-0.116,0.098,0.038,-0.135,-0.010,-0.070,-0.080,-0.095,-0.070,-0.055
-0.043,-0.155,-0.112,0.099,0.035,-0.133,-0.010,-0.069,-0.083,-0.092,-0.073,-0.055
-0.045,-0.155,-0.110,0.100,0.033,-0.132,-0.010,-0.072,-0.086,-0.089,-0.076,-0.055
-0.046,-0.155,-0.109,0.100,0.032,-0.132,-0.010,-0.075,-0.085,-0.090,-0.075,-0.055
-0.050,-0.155,-0.105,0.103,0.028,-0.130,-0.010,-0.075,-0.085,-0.090,-0.075,-0.055
-0.050,-0.155,-0.105,0.103,0.028,-0.130,-0.010,-0.075,-0.085,-0.090,-0.075,-0.055
-0.053,-0.155,-0.102,0.104,0.025,-0.128,-0.010,-0.075,-0.085,-0.090,-0.074,-0.058
-0.055,-0.155,-0.100,0.105,0.023,-0.127,-0.010,-0.075,-0.085,-0.090,-0.077,-0.061
-0.056,-0.155,-0.099,0.105,0.022,-0.127,-0.010,-0.076,-0.086,-0.091,-0.080,-0.060
-0.055,-0.155,-0.100,0.105,0.023,-0.127,-0.010,-0.080,-0.090,-0.095,-0.080,-0.060
-0.037,-0.155,-0.117,0.096,0.040,-0.135,-0.010,-0.080,-0.090,-0.095,-0.080,-0.064
-0.041,-0.158,-0.117,0.099,0.039,-0.138,-0.011,-0.080,-0.093,-0.098,-0.080,-0.066
-0.058,-0.161,-0.103,0.109,0.022,-0.131,-0.008,-0.080,-0.095,-0.100,-0.080,-0.064
-0.048,-0.160,-0.112,0.104,0.032,-0.136,-0.005,-0.080,-0.096,-0.101,-0.081,-0.066
-0.010,-0.160,-0.150,0.085,0.070,-0.155,-0.005,-0.080,-0.100,-0.105,-0.085,-0.070
-0.008,-0.160,-0.152,0.084,0.072,-0.156,-0.005,-0.084,-0.100,-0.109,-0.085,-0.070
-0.011,-0.160,-0.149,0.086,0.069,-0.154,-0.002,-0.085,-0.103,-0.114,-0.084,-0.070
-0.010,-0.160,-0.150,0.085,0.070,-0.155,0.000,-0.085,-0.106,-0.115,-0.087,-0.070
-0.010,-0.160,-0.150,0.085,0.070,-0.155,0.000,-0.085,-0.105,-0.116,-0.090,-0.070
-0.010,-0.160,-0.150,0.085,0.070,-0.155,0.000,-0.085,-0.105,-0.120,-0.090,-0.070
-0.010,-0.160,-0.150,0.085,0.070,-0.155,0.000,-0.085,-0.105,-0.120,-0.090,-0.074
-0.011,-0.161,-0.150,0.086,0.070,-0.155,0.003,-0.085,-0.106,-0.119,-0.093,-0.075
-0.007,-0.157,-0.150,0.082,0.071,-0.154,0.006,-0.085,-0.103,-0.122,-0.095,-0.075
0.003,-0.147,-0.150,0.072,0.076,-0.149,0.005,-0.086,-0.108,-0.125,-0.095,-0.075
0.005,-0.145,-0.150,0.070,0.078,-0.147,0.005,-0.090,-0.125,-0.125,-0.095,-0.075
-0.017,-0.167,-0.150,0.092,0.067,-0.158,0.009,-0.090,-0.130,-0.125,-0.095,-0.073
-0.046,-0.196,-0.150,0.121,0.053,-0.172,0.010,-0.090,-0.130,-0.128,-0.098,-0.087
-0.059,-0.209,-0.150,0.134,0.046,-0.179,0.010,-0.090,-0.130,-0.131,-0.100,-0.097
-0.060,-0.210,-0.150,0.135,0.045,-0.180,0.010,-0.090,-0.130,-0.130,-0.101,-0.095
-0.060,-0.210,-0.150,0.135,0.045,-0.180,0.010,-0.090,-0.130,-0.130,-0.105,-0.095
-0.060,-0.210,-0.150,0.135,0.045,-0.180,0.006,-0.090,-0.130,-0.130,-0.105,-0.095
-0.060,-0.210,-0.150,0.135,0.045,-0.180,0.005,-0.091,-0.130,-0.130,-0.108,-0.095
-0.060,-0.210,-0.150,0.135,0.045,-0.180,0.005,-0.088,-0.130,-0.130,-0.111,-0.095
-0.060,-0.210,-0.150,0.135,0.045,-0.180,0.005,-0.085,-0.130,-0.130,-0.110,-0.095
-0.060,-0.210,-0.150,0.135,0.045,-0.180,0.005,-0.085,-0.130,-0.130,-0.110,-0.095
-0.060,-0.210,-0.150,0.135,0.045,-0.180,0.005,-0.085,-0.130,-0.130,-0.110,-0.095
-0.060,-0.210,-0.150,0.135,0.045,-0.180,0.005,-0.085,-0.129,-0.130,-0.110,-0.095
-0.060,-0.210,-0.150,0.135,0.045,-0.180,0.005,-0.085,-0.132,-0.130,-0.110,-0.095
-0.060,-0.210,-0.150,0.135,0.045,-0.180,0.004,-0.085,-0.135,-0.130,-0.110,-0.095
-0.060,-0.210,-0.150,0.135,0.045,-0.180,0.000,-0.085,-0.135,-0.130,-0.110,-0.095
-0.056,-0.206,-0.150,0.131,0.047,-0.177,0.000,-0.085,-0.135,-0.130,-0.110,-0.095
-0.054,-0.205,-0.151,0.129,0.049,-0.177,0.000,-0.085,-0.135,-0.130,-0.110,-0.095
-0.057,-0.205,-0.148,0.131,0.046,-0.176,0.000,-0.085,-0.135,-0.130,-0.110,-0.095
-0.060,-0.205,-0.145,0.133,0.043,-0.175,0.000,-0.085,-0.136,-0.130,-0.110,-0.095
-0.060,-0.205,-0.145,0.133,0.043,-0.175,0.000,-0.085,-0.140,-0.130,-0.110,-0.095
-0.060,-0.201,-0.141,0.131,0.040,-0.171,0.000,-0.085,-0.140,-0.128,-0.110,-0.095
-0.060,-0.200,-0.140,0.130,0.040,-0.170,0.001,-0.085,-0.140,-0.143,-0.110,-0.095
-0.062,-0.200,-0.138,0.131,0.038,-0.169,-0.002,-0.085,-0.140,-0.150,-0.110,-0.095
-0.066,-0.200,-0.134,0.134,0.034,-0.167,-0.005,-0.085,-0.140,-0.144,-0.110,-0.095
-0.065,-0.200,-0.135,0.133,0.035,-0.167,-0.005,-0.085,-0.140,-0.145,-0.110,-0.095
-0.053,-0.196,-0.143,0.125,0.046,-0.169,-0.005,-0.085,-0.136,-0.145,-0.110,-0.095
-0.046,-0.195,-0.149,0.120,0.052,-0.171,-0.005,-0.085,-0.135,-0.145,-0.110,-0.095
-0.043,-0.195,-0.152,0.119,0.055,-0.173,-0.005,-0.085,-0.135,-0.145,-0.110,-0.095
-0.030,-0.195,-0.165,0.112,0.068,-0.180,-0.005,-0.085,-0.135,-0.145,-0.110,-0.095
-0.010,-0.195,-0.185,0.103,0.088,-0.190,-0.005,-0.085,-0.135,-0.145,-0.110,-0.095
-0.013,-0.195,-0.182,0.104,0.085,-0.188,-0.005,-0.085,-0.135,-0.145,-0.110,-0.095
-0.016,-0.192,-0.176,0.104,0.080,-0.183,-0.005,-0.085,-0.135,-0.145,-0.110,-0.095
-0.014,-0.189,-0.175,0.102,0.080,-0.182,-0.007,-0.085,-0.135,-0.145,-0.110,-0.095
-0.016,-0.190,-0.174,0.103,0.079,-0.182,-0.011,-0.085,-0.135,-0.145,-0.110,-0.095
-0.020,-0.190,-0.170,0.105,0.075,-0.180,-0.015,-0.085,-0.135,-0.145,-0.110,-0.095
-0.020,-0.190,-0.170,0.105,0.075,-0.180,-0.019,-0.088,-0.135,-0.145,-0.110,-0.095
-0.019,-0.187,-0.168,0.104,0.074,-0.177,-0.023,-0.095,-0.135,-0.145,-0.111,-0.095
-0.022,-0.184,-0.162,0.104,0.071,-0.173,-0.027,-0.091,-0.135,-0.145,-0.108,-0.095
-0.025,-0.185,-0.160,0.105,0.068,-0.172,-0.031,-0.094,-0.144,-0.145,-0.114,-0.095
-0.025,-0.185,-0.160,0.105,0.068,-0.172,-0.030,-0.115,-0.160,-0.145,-0.135,-0.095
-0.028,-0.185,-0.156,0.107,0.065,-0.170,-0.026,-0.112,-0.157,-0.145,-0.132,-0.095
-0.035,-0.187,-0.152,0.111,0.059,-0.169,-0.025,-0.109,-0.154,-0.145,-0.129,-0.095
-0.014,-0.179,-0.165,0.097,0.076,-0.172,-0.025,-0.110,-0.155,-0.145,-0.130,-0.095
0.003,-0.178,-0.181,0.087,0.093,-0.179,-0.025,-0.110,-0.155,-0.145,-0.130,-0.095
-0.030,-0.205,-0.175,0.118,0.073,-0.190,-0.025,-0.110,-0.155,-0.145,-0.130,-0.095
-0.057,-0.231,-0.175,0.145,0.059,-0.203,-0.025,-0.110,-0.155,-0.145,-0.126,-0.095
-0.063,-0.237,-0.174,0.150,0.056,-0.205,-0.025,-0.107,-0.155,-0.145,-0.125,-0.095
-0.070,-0.234,-0.165,0.152,0.048,-0.199,-0.025,-0.104,-0.155,-0.145,-0.125,-0.095
-0.056,-0.235,-0.179,0.146,0.062,-0.207,-0.025,-0.105,-0.154,-0.145,-0.125,-0.095
-0.015,-0.235,-0.220,0.125,0.103,-0.227,-0.025,-0.105,-0.150,-0.145,-0.125,-0.095
-0.025,-0.235,-0.210,0.130,0.093,-0.223,-0.025,-0.105,-0.150,-0.141,-0.121,-0.095
-0.038,-0.235,-0.197,0.137,0.080,-0.216,-0.025,-0.105,-0.150,-0.140,-0.120,-0.095
-0.043,-0.235,-0.192,0.140,0.075,-0.213,-0.025,-0.105,-0.150,-0.140,-0.120,-0.095
-0.052,-0.235,-0.183,0.144,0.066,-0.209,-0.024,-0.104,-0.150,-0.140,-0.120,-0.095
-0.060,-0.235,-0.175,0.148,0.058,-0.205,-0.020,-0.100,-0.150,-0.140,-0.120,-0.095
-0.068,-0.235,-0.167,0.152,0.050,-0.201,-0.020,-0.100,-0.150,-0.140,-0.120,-0.095
-0.076,-0.235,-0.159,0.156,0.042,-0.197,-0.020,-0.100,-0.151,-0.140,-0.117,-0.096
-0.083,-0.235,-0.152,0.159,0.035,-0.194,-0.020,-0.100,-0.148,-0.140,-0.114,-0.093
-0.076,-0.235,-0.159,0.156,0.042,-0.197,-0.020,-0.100,-0.145,-0.140,-0.115,-0.099
-0.055,-0.235,-0.180,0.145,0.063,-0.207,-0.020,-0.100,-0.145,-0.140,-0.115,-0.120
-0.050,-0.235,-0.185,0.143,0.068,-0.210,-0.020,-0.096,-0.145,-0.140,-0.115,-0.117
-0.050,-0.235,-0.185,0.143,0.068,-0.210,-0.020,-0.095,-0.145,-0.140,-0.112,-0.114
-0.050,-0.235,-0.185,0.143,0.068,-0.210,-0.020,-0.095,-0.145,-0.140,-0.109,-0.115
-0.050,-0.235,-0.185,0.143,0.068,-0.210,-0.020,-0.095,-0.145,-0.140,-0.110,-0.115
-0.050,-0.235,-0.185,0.143,0.068,-0.210,-0.020,-0.095,-0.145,-0.140,-0.110,-0.115
-0.051,-0.235,-0.184,0.143,0.067,-0.210,-0.020,-0.095,-0.145,-0.140,-0.110,-0.115
-0.046,-0.235,-0.189,0.141,0.072,-0.212,-0.019,-0.094,-0.146,-0.140,-0.109,-0.115
-0.063,-0.235,-0.172,0.149,0.055,-0.203,-0.022,-0.097,-0.143,-0.140,-0.112,-0.115
-0.070,-0.235,-0.165,0.152,0.048,-0.200,-0.025,-0.100,-0.140,-0.140,-0.115,-0.114
-0.030,-0.235,-0.205,0.133,0.088,-0.220,-0.025,-0.100,-0.140,-0.140,-0.115,-0.110
-0.032,-0.235,-0.203,0.133,0.086,-0.219,-0.025,-0.100,-0.140,-0.140,-0.119,-0.110
-0.040,-0.235,-0.195,0.137,0.078,-0.215,-0.025,-0.101,-0.137,-0.140,-0.121,-0.110
-0.040,-0.236,-0.195,0.139,0.078,-0.216,-0.025,-0.098,-0.134,-0.140,-0.118,-0.110
-0.039,-0.234,-0.194,0.137,0.078,-0.214,-0.025,-0.095,-0.135,-0.140,-0.115,-0.110
-0.035,-0.225,-0.190,0.130,0.078,-0.207,-0.025,-0.095,-0.135,-0.140,-0.115,-0.110
-0.032,-0.217,-0.185,0.125,0.077,-0.201,-0.025,-0.095,-0.131,-0.140,-0.111,-0.110
-0.023,-0.209,-0.186,0.117,0.082,-0.198,-0.025,-0.095,-0.130,-0.141,-0.110,-0.110
-0.021,-0.201,-0.180,0.111,0.080,-0.190,-0.025,-0.095,-0.130,-0.137,-0.108,-0.108
-0.025,-0.193,-0.168,0.109,0.072,-0.180,-0.025,-0.095,-0.130,-0.128,-0.105,-0.104
-0.025,-0.185,-0.160,0.105,0.068,-0.172,-0.025,-0.095,-0.130,-0.125,-0.105,-0.100
-0.029,-0.177,-0.148,0.104,0.060,-0.162,-0.017,-0.087,-0.122,-0.121,-0.101,-0.096
-0.030,-0.169,-0.139,0.100,0.055,-0.154,-0.009,-0.082,-0.114,-0.114,-0.100,-0.095
-0.033,-0.163,-0.130,0.098,0.049,-0.146,-0.001,-0.076,-0.106,-0.107,-0.098,-0.094
-0.043,-0.159,-0.116,0.101,0.037,-0.138,0.007,-0.069,-0.098,-0.104,-0.095,-0.089
-0.045,-0.155,-0.110,0.100,0.033,-0.132,0.015,-0.065,-0.090,-0.100,-0.095,-0.085
-0.020,-0.151,-0.131,0.086,0.056,-0.141,0.023,-0.057,-0.082,-0.096,-0.091,-0.085
-0.013,-0.147,-0.134,0.080,0.061,-0.140,0.032,-0.052,-0.075,-0.095,-0.090,-0.083
-0.014,-0.143,-0.129,0.079,0.058,-0.136,0.034,-0.046,-0.079,-0.095,-0.088,-0.077
-0.009,-0.139,-0.130,0.074,0.061,-0.135,0.029,-0.039,-0.085,-0.095,-0.085,-0.075
-0.005,-0.135,-0.130,0.070,0.063,-0.132,0.030,-0.035,-0.080,-0.095,-0.085,-0.075
-0.001,-0.131,-0.130,0.066,0.064,-0.130,0.030,-0.031,-0.080,-0.095,-0.081,-0.071
0.004,-0.126,-0.131,0.061,0.068,-0.128,0.030,-0.027,-0.080,-0.095,-0.080,-0.070
0.003,-0.125,-0.128,0.061,0.066,-0.126,0.030,-0.024,-0.080,-0.095,-0.078,-0.070
0.000,-0.124,-0.125,0.063,0.063,-0.125,0.031,-0.018,-0.080,-0.095,-0.075,-0.070
0.005,-0.120,-0.125,0.058,0.065,-0.122,0.030,-0.015,-0.080,-0.095,-0.075,-0.070
0.009,-0.116,-0.125,0.054,0.067,-0.120,0.008,-0.045,-0.079,-0.095,-0.075,-0.066
0.011,-0.115,-0.126,0.052,0.070,-0.121,-0.022,-0.084,-0.086,-0.095,-0.075,-0.065
0.007,-0.114,-0.121,0.054,0.064,-0.117,-0.031,-0.095,-0.091,-0.095,-0.075,-0.065
0.025,-0.109,-0.133,0.042,0.079,-0.121,-0.042,-0.100,-0.099,-0.094,-0.075,-0.065
0.070,-0.105,-0.175,0.018,0.123,-0.140,-0.075,-0.125,-0.115,-0.090,-0.075,-0.065
0.067,-0.106,-0.173,0.019,0.121,-0.139,-0.069,-0.118,-0.112,-0.090,-0.071,-0.065
0.069,-0.100,-0.168,0.016,0.119,-0.134,-0.061,-0.111,-0.110,-0.090,-0.070,-0.062
0.080,-0.091,-0.171,0.005,0.126,-0.130,-0.056,-0.106,-0.108,-0.090,-0.070,-0.059
0.087,-0.083,-0.170,-0.002,0.129,-0.126,-0.049,-0.099,-0.104,-0.090,-0.070,-0.060
0.095,-0.075,-0.170,-0.010,0.133,-0.122,-0.045,-0.095,-0.105,-0.090,-0.070,-0.060
0.102,-0.068,-0.170,-0.017,0.136,-0.119,-0.037,-0.087,-0.106,-0.090,-0.070,-0.060
0.079,-0.088,-0.167,0.005,0.123,-0.127,-0.031,-0.081,-0.102,-0.090,-0.067,-0.057
0.043,-0.121,-0.164,0.039,0.104,-0.143,-0.032,-0.080,-0.100,-0.090,-0.064,-0.054
0.039,-0.126,-0.165,0.044,0.102,-0.145,-0.035,-0.089,-0.099,-0.090,-0.065,-0.055
0.055,-0.110,-0.165,0.028,0.110,-0.137,-0.035,-0.105,-0.095,-0.090,-0.065,-0.055
0.021,-0.144,-0.165,0.062,0.093,-0.154,-0.035,-0.106,-0.095,-0.090,-0.065,-0.055
0.021,-0.144,-0.165,0.062,0.093,-0.154,-0.035,-0.105,-0.094,-0.089,-0.064,-0.054
0.015,-0.149,-0.164,0.068,0.089,-0.156,-0.035,-0.105,-0.099,-0.092,-0.069,-0.060
-0.015,-0.173,-0.158,0.094,0.072,-0.165,-0.035,-0.105,-0.106,-0.096,-0.076,-0.073
-0.005,-0.165,-0.160,0.085,0.078,-0.162,-0.035,-0.105,-0.110,-0.100,-0.080,-0.080
0.031,-0.163,-0.194,0.066,0.113,-0.178,-0.035,-0.105,-0.131,-0.113,-0.092,-0.084
0.024,-0.179,-0.202,0.078,0.113,-0.190,-0.035,-0.106,-0.140,-0.118,-0.102,-0.091
-0.013,-0.201,-0.188,0.107,0.088,-0.194,-0.035,-0.103,-0.140,-0.125,-0.107,-0.097
-0.014,-0.211,-0.197,0.112,0.091,-0.204,-0.035,-0.109,-0.140,-0.137,-0.111,-0.101
0.015,-0.215,-0.230,0.100,0.123,-0.222,-0.035,-0.125,-0.140,-0.140,-0.115,-0.105
-0.013,-0.241,-0.227,0.127,0.108,-0.234,-0.035,-0.122,-0.144,-0.140,-0.115,-0.105
-0.020,-0.244,-0.224,0.133,0.102,-0.234,-0.038,-0.119,-0.145,-0.140,-0.118,-0.105
-0.015,-0.239,-0.223,0.127,0.104,-0.231,-0.041,-0.120,-0.145,-0.140,-0.121,-0.105
-0.021,-0.240,-0.220,0.130,0.100,-0.230,-0.040,-0.120,-0.144,-0.141,-0.120,-0.106
-0.020,-0.240,-0.220,0.130,0.100,-0.230,-0.040,-0.120,-0.145,-0.145,-0.120,-0.110
-0.024,-0.240,-0.215,0.133,0.095,-0.227,-0.040,-0.120,-0.162,-0.145,-0.120,-0.110
-0.024,-0.240,-0.216,0.132,0.096,-0.228,-0.040,-0.120,-0.164,-0.149,-0.121,-0.113
-0.031,-0.240,-0.209,0.136,0.089,-0.224,-0.040,-0.120,-0.159,-0.148,-0.118,-0.115
-0.023,-0.240,-0.217,0.131,0.097,-0.229,-0.040,-0.119,-0.160,-0.154,-0.124,-0.116
0.010,-0.245,-0.255,0.118,0.133,-0.250,-0.040,-0.115,-0.160,-0.175,-0.145,-0.120
-0.013,-0.266,-0.253,0.139,0.120,-0.259,-0.040,-0.115,-0.160,-0.172,-0.150,-0.124
-0.024,-0.273,-0.249,0.148,0.113,-0.261,-0.040,-0.115,-0.161,-0.169,-0.150,-0.128
-0.003,-0.252,-0.248,0.128,0.123,-0.250,-0.040,-0.115,-0.158,-0.170,-0.150,-0.131
-0.034,-0.279,-0.245,0.157,0.105,-0.261,-0.040,-0.115,-0.155,-0.170,-0.150,-0.129
-0.075,-0.320,-0.245,0.198,0.085,-0.282,-0.040,-0.115,-0.155,-0.170,-0.150,-0.125
0.077,-0.164,-0.241,0.044,0.159,-0.202,-0.036,-0.115,-0.155,-0.170,-0.150,-0.125
0.024,-0.216,-0.240,0.096,0.133,-0.228,-0.034,-0.116,-0.155,-0.170,-0.150,-0.125
-0.064,-0.302,-0.238,0.183,0.088,-0.270,-0.036,-0.113,-0.155,-0.170,-0.150,-0.125
-0.034,-0.269,-0.235,0.152,0.101,-0.252,-0.034,-0.110,-0.155,-0.169,-0.150,-0.125
-0.035,-0.270,-0.235,0.153,0.100,-0.252,-0.030,-0.110,-0.155,-0.165,-0.150,-0.125
-0.036,-0.267,-0.231,0.151,0.098,-0.248,-0.030,-0.110,-0.151,-0.165,-0.150,-0.125
-0.032,-0.262,-0.230,0.147,0.099,-0.246,-0.030,-0.110,-0.150,-0.165,-0.150,-0.125
-0.030,-0.258,-0.228,0.144,0.099,-0.243,-0.030,-0.110,-0.150,-0.165,-0.150,-0.125
-0.029,-0.254,-0.225,0.142,0.098,-0.239,-0.029,-0.110,-0.150,-0.165,-0.150,-0.125
-0.025,-0.250,-0.225,0.138,0.100,-0.237,-0.025,-0.110,-0.150,-0.165,-0.150,-0.125
-0.025,-0.246,-0.221,0.135,0.098,-0.233,-0.025,-0.110,-0.150,-0.165,-0.150,-0.121
-0.024,-0.244,-0.220,0.134,0.098,-0.232,-0.026,-0.111,-0.147,-0.166,-0.150,-0.120
-0.027,-0.246,-0.219,0.137,0.096,-0.232,-0.023,-0.108,-0.144,-0.163,-0.150,-0.120
-0.030,-0.244,-0.214,0.137,0.092,-0.229,-0.020,-0.105,-0.145,-0.160,-0.150,-0.120
-0.035,-0.245,-0.210,0.140,0.088,-0.227,-0.020,-0.105,-0.145,-0.160,-0.150,-0.120
-0.061,-0.267,-0.206,0.164,0.073,-0.236,-0.020,-0.101,-0.145,-0.160,-0.150,-0.120
-0.065,-0.267,-0.202,0.166,0.068,-0.234,-0.021,-0.100,-0.145,-0.160,-0.150,-0.120
-0.057,-0.255,-0.198,0.156,0.071,-0.226,-0.016,-0.098,-0.146,-0.160,-0.150,-0.120
-0.055,-0.248,-0.193,0.152,0.069,-0.220,-0.009,-0.095,-0.144,-0.160,-0.150,-0.120
-0.050,-0.240,-0.190,0.145,0.070,-0.215,-0.005,-0.095,-0.135,-0.160,-0.150,-0.120
-0.028,-0.233,-0.205,0.131,0.089,-0.218,0.004,-0.078,-0.127,-0.160,-0.151,-0.118
-0.029,-0.254,-0.225,0.141,0.099,-0.240,0.004,-0.069,-0.118,-0.160,-0.146,-0.136
-0.055,-0.282,-0.227,0.169,0.086,-0.254,0.029,-0.022,-0.113,-0.158,-0.163,-0.163
-0.078,-0.289,-0.211,0.184,0.067,-0.250,0.083,0.067,-0.100,-0.154,-0.180,-0.186
-0.080,-0.280,-0.200,0.180,0.060,-0.240,0.130,0.135,-0.075,-0.150,-0.160,-0.200
-0.085,-0.273,-0.189,0.179,0.052,-0.231,0.170,0.174,-0.058,-0.145,-0.148,-0.192
-0.080,-0.252,-0.172,0.166,0.046,-0.212,0.207,0.232,-0.014,-0.144,-0.132,-0.190
-0.053,-0.231,-0.177,0.142,0.062,-0.204,0.228,0.311,0.028,-0.128,-0.122,-0.169
-0.008,-0.198,-0.190,0.103,0.091,-0.194,0.247,0.406,0.086,-0.071,-0.100,-0.125
0.045,-0.135,-0.180,0.045,0.113,-0.157,0.280,0.530,0.210,0.025,-0.040,-0.090
0.098,-0.082,-0.180,-0.008,0.140,-0.131,0.300,0.673,0.364,0.136,0.036,-0.038
0.140,0.005,-0.135,-0.072,0.137,-0.065,0.322,0.783,0.531,0.290,0.150,0.047
0.185,0.115,-0.070,-0.150,0.128,0.022,0.314,0.862,0.713,0.471,0.293,0.155
0.255,0.230,-0.025,-0.242,0.140,0.102,0.276,0.896,0.883,0.647,0.442,0.268
0.325,0.350,0.025,-0.338,0.150,0.187,0.250,0.890,1.035,0.825,0.595,0.385
0.347,0.460,0.113,-0.404,0.117,0.286,0.212,0.925,1.253,1.049,0.764,0.518
0.440,0.631,0.191,-0.536,0.124,0.410,0.087,0.881,1.470,1.294,0.953,0.674
0.558,0.807,0.249,-0.682,0.154,0.527,-0.072,0.809,1.670,1.532,1.148,0.833
0.611,0.987,0.376,-0.799,0.117,0.681,-0.215,0.709,1.869,1.789,1.372,1.017
0.595,1.165,0.570,-0.880,0.012,0.867,-0.340,0.505,2.000,2.000,1.575,1.190
0.539,1.143,0.603,-0.841,-0.033,0.873,-0.413,0.291,1.955,1.959,1.569,1.175
0.455,1.021,0.566,-0.738,-0.056,0.793,-0.416,0.165,1.920,1.915,1.456,1.060
0.385,0.924,0.539,-0.654,-0.078,0.731,-0.397,0.018,1.781,1.794,1.323,0.947
0.338,0.821,0.483,-0.580,-0.073,0.652,-0.387,-0.173,1.461,1.511,1.149,0.822
0.270,0.630,0.360,-0.450,-0.045,0.495,-0.375,-0.320,1.055,1.160,0.900,0.640
0.155,0.402,0.247,-0.279,-0.046,0.325,-0.364,-0.467,0.572,0.758,0.625,0.455
0.081,0.218,0.137,-0.150,-0.028,0.177,-0.340,-0.532,0.070,0.319,0.351,0.281
0.038,0.079,0.040,-0.059,-0.001,0.059,-0.263,-0.467,-0.323,-0.038,0.132,0.140
-0.015,-0.046,-0.031,0.031,0.009,-0.038,-0.173,-0.339,-0.467,-0.217,0.008,0.046
-0.045,-0.155,-0.110,0.100,0.033,-0.132,-0.135,-0.225,-0.400,-0.245,-0.050,-0.015
0.006,-0.232,-0.238,0.113,0.122,-0.234,-0.093,-0.091,-0.358,-0.225,-0.116,-0.077
0.004,-0.310,-0.313,0.153,0.159,-0.311,-0.039,0.048,-0.277,-0.208,-0.155,-0.118
-0.025,-0.369,-0.345,0.197,0.160,-0.357,0.018,0.146,-0.200,-0.189,-0.176,-0.154
-0.024,-0.376,-0.352,0.200,0.164,-0.364,0.064,0.203,-0.158,-0.163,-0.183,-0.176
-0.015,-0.340,-0.325,0.178,0.155,-0.332,0.085,0.240,-0.110,-0.140,-0.165,-0.160
-0.003,-0.307,-0.304,0.155,0.151,-0.305,0.082,0.226,-0.096,-0.131,-0.153,-0.151
0.005,-0.282,-0.287,0.138,0.146,-0.285,0.076,0.210,-0.090,-0.124,-0.138,-0.145
0.017,-0.257,-0.274,0.120,0.146,-0.265,0.073,0.199,-0.079,-0.116,-0.123,-0.134
0.025,-0.236,-0.261,0.106,0.143,-0.248,0.069,0.187,-0.068,-0.108,-0.113,-0.123
0.015,-0.230,-0.245,0.108,0.130,-0.237,0.065,0.175,-0.060,-0.100,-0.110,-0.115
0.006,-0.226,-0.232,0.110,0.120,-0.229,0.065,0.159,-0.048,-0.092,-0.110,-0.107
0.002,-0.222,-0.224,0.110,0.113,-0.223,0.062,0.144,-0.038,-0.087,-0.107,-0.101
-0.002,-0.218,-0.216,0.110,0.107,-0.217,0.058,0.123,-0.032,-0.083,-0.105,-0.100
-0.005,-0.214,-0.209,0.110,0.102,-0.211,0.054,0.092,-0.039,-0.080,-0.104,-0.100
-0.005,-0.210,-0.205,0.108,0.100,-0.207,0.050,0.065,-0.055,-0.080,-0.100,-0.100
-0.009,-0.206,-0.197,0.108,0.095,-0.202,0.046,0.056,-0.052,-0.080,-0.100,-0.100
-0.014,-0.202,-0.188,0.108,0.088,-0.195,0.045,0.049,-0.049,-0.077,-0.097,-0.101
-0.015,-0.198,-0.183,0.106,0.084,-0.189,0.043,0.041,-0.050,-0.075,-0.095,-0.098
-0.016,-0.195,-0.179,0.105,0.082,-0.187,0.039,0.033,-0.050,-0.075,-0.094,-0.095
-0.020,-0.195,-0.175,0.108,0.078,-0.185,0.040,0.025,-0.050,-0.075,-0.090,-0.095
-0.016,-0.191,-0.175,0.104,0.079,-0.182,0.040,0.017,-0.050,-0.075,-0.090,-0.095
-0.014,-0.190,-0.176,0.103,0.081,-0.182,0.037,0.009,-0.051,-0.072,-0.087,-0.095
-0.016,-0.189,-0.173,0.102,0.079,-0.180,0.034,0.002,-0.048,-0.069,-0.085,-0.095
-0.014,-0.184,-0.170,0.099,0.078,-0.176,0.035,0.000,-0.045,-0.070,-0.084,-0.095
-0.010,-0.180,-0.170,0.095,0.080,-0.175,0.035,0.000,-0.045,-0.070,-0.080,-0.095
-0.010,-0.180,-0.170,0.095,0.080,-0.175,0.031,0.000,-0.045,-0.070,-0.080,-0.091
-0.010,-0.177,-0.167,0.094,0.079,-0.172,0.029,0.000,-0.045,-0.067,-0.077,-0.090
-0.011,-0.175,-0.164,0.093,0.078,-0.170,0.031,0.000,-0.045,-0.064,-0.074,-0.090
-0.009,-0.174,-0.165,0.092,0.079,-0.170,0.029,0.000,-0.045,-0.065,-0.075,-0.090
-0.005,-0.170,-0.165,0.088,0.080,-0.167,0.025,0.000,-0.045,-0.065,-0.075,-0.090
-0.009,-0.170,-0.161,0.090,0.076,-0.165,0.025,0.000,-0.041,-0.061,-0.071,-0.090
-0.008,-0.167,-0.159,0.087,0.076,-0.163,0.026,-0.003,-0.040,-0.060,-0.069,-0.087
-0.004,-0.164,-0.161,0.084,0.079,-0.162,0.023,-0.006,-0.040,-0.060,-0.071,-0.084
-0.006,-0.165,-0.159,0.086,0.077,-0.162,0.020,-0.005,-0.040,-0.060,-0.069,-0.085
-0.010,-0.165,-0.155,0.088,0.073,-0.160,0.020,-0.005,-0.040,-0.060,-0.065,-0.085
-0.006,-0.161,-0.155,0.084,0.074,-0.157,0.020,-0.005,-0.040,-0.056,-0.065,-0.085
-0.004,-0.159,-0.156,0.082,0.076,-0.157,0.017,-0.005,-0.041,-0.055,-0.066,-0.085
-0.007,-0.161,-0.153,0.084,0.073,-0.157,0.014,-0.005,-0.037,-0.055,-0.063,-0.085
-0.010,-0.159,-0.150,0.084,0.070,-0.154,0.015,-0.005,-0.028,-0.055,-0.060,-0.084
-0.005,-0.155,-0.150,0.080,0.073,-0.152,0.015,-0.005,-0.025,-0.055,-0.060,-0.080
-0.004,-0.155,-0.150,0.079,0.074,-0.152,0.011,-0.009,-0.021,-0.059,-0.060,-0.080
-0.009,-0.156,-0.147,0.083,0.070,-0.151,0.010,-0.014,-0.017,-0.061,-0.057,-0.077
-0.008,-0.153,-0.145,0.081,0.069,-0.148,0.010,-0.015,-0.013,-0.059,-0.054,-0.074
-0.005,-0.150,-0.145,0.078,0.070,-0.147,0.011,-0.016,-0.009,-0.061,-0.055,-0.075
-0.005,-0.150,-0.145,0.078,0.070,-0.147,0.010,-0.020,-0.005,-0.065,-0.055,-0.075
0.002,-0.143,-0.145,0.071,0.074,-0.144,-0.005,-0.024,-0.012,-0.065,-0.051,-0.071
-0.055,-0.197,-0.142,0.126,0.043,-0.169,-0.021,-0.026,-0.023,-0.066,-0.049,-0.069
-0.073,-0.212,-0.139,0.142,0.033,-0.176,-0.025,-0.021,-0.023,-0.061,-0.050,-0.071
0.001,-0.139,-0.140,0.069,0.071,-0.140,-0.018,-0.014,-0.013,-0.054,-0.049,-0.069
0.040,-0.100,-0.140,0.030,0.090,-0.120,-0.015,-0.010,-0.005,-0.050,-0.045,-0.065
-0.039,-0.179,-0.140,0.109,0.051,-0.159,-0.015,-0.002,0.003,-0.042,-0.040,-0.065
-0.056,-0.196,-0.140,0.126,0.042,-0.168,-0.012,0.003,0.011,-0.037,-0.040,-0.066
-0.032,-0.172,-0.140,0.102,0.054,-0.156,-0.010,0.009,0.019,-0.031,-0.038,-0.063
-0.029,-0.169,-0.140,0.099,0.056,-0.155,-0.010,0.016,0.026,-0.024,-0.035,-0.060
-0.020,-0.160,-0.140,0.090,0.060,-0.150,-0.005,0.020,0.030,-0.020,-0.035,-0.060
-0.016,-0.152,-0.136,0.084,0.060,-0.143,0.000,0.024,0.035,-0.016,-0.031,-0.060
-0.010,-0.144,-0.135,0.077,0.063,-0.139,0.000,0.028,0.034,-0.011,-0.026,-0.057
-0.001,-0.136,-0.135,0.069,0.067,-0.135,0.002,0.032,0.039,-0.010,-0.025,-0.053
0.007,-0.128,-0.135,0.061,0.071,-0.131,0.006,0.036,0.046,-0.009,-0.024,-0.049
0.010,-0.125,-0.135,0.058,0.073,-0.130,0.005,0.035,0.050,-0.005,-0.020,-0.045
0.010,-0.125,-0.135,0.058,0.073,-0.130,0.001,0.031,0.067,0.000,-0.020,-0.045
0.013,-0.122,-0.135,0.055,0.074,-0.128,0.000,0.029,0.073,-0.001,-0.017,-0.043
0.016,-0.119,-0.135,0.052,0.076,-0.127,-0.002,0.032,0.067,0.003,-0.013,-0.037
0.014,-0.120,-0.134,0.054,0.074,-0.127,-0.006,0.044,0.075,0.012,-0.009,-0.035
0.010,-0.120,-0.130,0.055,0.070,-0.125,-0.005,0.060,0.100,0.020,-0.005,-0.035
0.014,-0.116,-0.130,0.051,0.072,-0.122,-0.005,0.065,0.102,0.024,-0.001,-0.031
0.015,-0.115,-0.130,0.050,0.073,-0.122,-0.008,0.064,0.098,0.030,0.004,-0.026
0.017,-0.113,-0.130,0.048,0.074,-0.121,-0.011,0.068,0.105,0.039,0.005,-0.025
0.021,-0.109,-0.130,0.044,0.075,-0.120,-0.010,0.077,0.118,0.046,0.006,-0.024
