I,II,III,aVR,aVL,aVF,V1,V2,V3,V4,V5,V6
0.000,-0.120,-0.120,0.060,0.060,-0.120,0.085,0.030,-0.095,-0.160,-0.170,-0.105
0.000,-0.120,-0.120,0.060,0.060,-0.120,0.085,0.030,-0.095,-0.160,-0.170,-0.105
0.000,-0.120,-0.120,0.060,0.060,-0.120,0.085,0.030,-0.095,-0.160,-0.170,-0.105
0.000,-0.120,-0.120,0.060,0.060,-0.120,0.085,0.030,-0.096,-0.161,-0.170,-0.105
0.000,-0.120,-0.120,0.060,0.060,-0.120,0.084,0.030,-0.094,-0.159,-0.169,-0.105
0.000,-0.120,-0.120,0.060,0.060,-0.120,0.085,0.030,-0.095,-0.160,-0.170,-0.105
-0.001,-0.120,-0.120,0.061,0.059,-0.120,0.098,0.019,-0.116,-0.181,-0.182,-0.112
0.004,-0.118,-0.122,0.057,0.063,-0.120,0.101,0.005,-0.123,-0.188,-0.194,-0.125
-0.012,-0.127,-0.115,0.070,0.051,-0.121,0.100,-0.004,-0.133,-0.197,-0.207,-0.133
-0.022,-0.142,-0.121,0.083,0.049,-0.131,0.100,-0.013,-0.154,-0.213,-0.216,-0.136
0.000,-0.150,-0.150,0.075,0.075,-0.150,0.100,-0.025,-0.165,-0.225,-0.220,-0.145
-0.023,-0.171,-0.147,0.097,0.062,-0.159,0.100,-0.037,-0.169,-0.242,-0.232,-0.158
-0.036,-0.180,-0.144,0.109,0.054,-0.162,0.100,-0.047,-0.172,-0.248,-0.239,-0.158
-0.035,-0.180,-0.145,0.108,0.055,-0.162,0.100,-0.053,-0.179,-0.256,-0.240,-0.155
-0.035,-0.180,-0.145,0.108,0.055,-0.162,0.100,-0.055,-0.186,-0.265,-0.241,-0.154
-0.035,-0.180,-0.145,0.108,0.055,-0.162,0.100,-0.055,-0.190,-0.260,-0.245,-0.150
-0.040,-0.184,-0.145,0.112,0.053,-0.164,0.101,-0.051,-0.195,-0.260,-0.250,-0.150
-0.039,-0.185,-0.146,0.112,0.054,-0.166,0.091,-0.050,-0.193,-0.257,-0.248,-0.151
-0.046,-0.186,-0.141,0.116,0.048,-0.163,0.098,-0.048,-0.187,-0.255,-0.242,-0.148
-0.038,-0.182,-0.144,0.110,0.053,-0.163,0.118,-0.045,-0.185,-0.254,-0.240,-0.145
-0.010,-0.175,-0.165,0.093,0.078,-0.170,0.120,-0.045,-0.185,-0.250,-0.240,-0.145
-0.038,-0.197,-0.159,0.118,0.060,-0.177,0.120,-0.041,-0.181,-0.250,-0.236,-0.145
-0.044,-0.191,-0.148,0.118,0.052,-0.169,0.120,-0.041,-0.176,-0.247,-0.235,-0.142
-0.029,-0.172,-0.143,0.101,0.057,-0.157,0.120,-0.035,-0.175,-0.245,-0.234,-0.139
-0.024,-0.162,-0.138,0.093,0.058,-0.150,0.120,-0.023,-0.174,-0.244,-0.229,-0.140
-0.020,-0.150,-0.130,0.085,0.055,-0.140,0.120,-0.015,-0.165,-0.240,-0.225,-0.140
-0.016,-0.138,-0.122,0.077,0.053,-0.129,0.120,-0.003,-0.157,-0.241,-0.225,-0.136
-0.012,-0.129,-0.116,0.071,0.052,-0.122,0.123,0.006,-0.149,-0.234,-0.222,-0.134
-0.006,-0.121,-0.115,0.064,0.055,-0.118,0.126,0.016,-0.141,-0.227,-0.220,-0.135
0.002,-0.113,-0.115,0.056,0.059,-0.114,0.125,0.028,-0.133,-0.224,-0.219,-0.134
0.010,-0.105,-0.115,0.048,0.063,-0.110,0.125,0.035,-0.125,-0.220,-0.210,-0.130
0.018,-0.097,-0.115,0.040,0.067,-0.106,0.125,0.038,-0.121,-0.216,-0.206,-0.126
0.023,-0.092,-0.115,0.035,0.069,-0.103,0.122,0.049,-0.117,-0.212,-0.199,-0.121
0.027,-0.088,-0.115,0.031,0.071,-0.101,0.120,0.059,-0.113,-0.208,-0.193,-0.120
0.030,-0.085,-0.115,0.028,0.073,-0.100,0.119,0.060,-0.109,-0.204,-0.188,-0.119
0.030,-0.085,-0.115,0.028,0.073,-0.100,0.115,0.060,-0.105,-0.200,-0.180,-0.115
0.034,-0.081,-0.115,0.024,0.075,-0.097,0.115,0.064,-0.101,-0.196,-0.175,-0.111
0.035,-0.080,-0.115,0.023,0.075,-0.097,0.116,0.068,-0.097,-0.195,-0.178,-0.110
0.036,-0.079,-0.115,0.022,0.076,-0.097,0.113,0.072,-0.093,-0.194,-0.181,-0.109
0.042,-0.074,-0.115,0.017,0.079,-0.094,0.110,0.075,-0.089,-0.189,-0.180,-0.104
0.045,-0.070,-0.115,0.013,0.080,-0.092,0.110,0.075,-0.085,-0.185,-0.180,-0.100
0.041,-0.070,-0.111,0.015,0.076,-0.091,0.110,0.075,-0.085,-0.184,-0.180,-0.100
0.043,-0.067,-0.109,0.012,0.076,-0.088,0.107,0.074,-0.086,-0.188,-0.179,-0.100
0.046,-0.065,-0.111,0.009,0.079,-0.087,0.104,0.080,-0.083,-0.191,-0.182,-0.100
0.045,-0.064,-0.109,0.010,0.077,-0.086,0.105,0.084,-0.080,-0.190,-0.185,-0.100
0.045,-0.060,-0.105,0.008,0.075,-0.082,0.105,0.070,-0.080,-0.190,-0.185,-0.100
0.049,-0.056,-0.105,0.004,0.077,-0.080,0.101,0.062,-0.080,-0.190,-0.185,-0.100
0.054,-0.052,-0.106,-0.001,0.080,-0.078,0.099,0.054,-0.084,-0.190,-0.185,-0.100
0.054,-0.049,-0.103,-0.002,0.078,-0.076,0.101,0.046,-0.098,-0.190,-0.185,-0.100
0.049,-0.051,-0.100,0.001,0.074,-0.075,0.099,0.037,-0.112,-0.191,-0.186,-0.099
0.040,-0.060,-0.100,0.010,0.070,-0.080,0.095,0.025,-0.115,-0.195,-0.190,-0.100
0.024,-0.077,-0.100,0.026,0.062,-0.088,0.095,0.017,-0.119,-0.199,-0.190,-0.112
0.014,-0.085,-0.099,0.036,0.057,-0.092,0.092,0.009,-0.124,-0.203,-0.190,-0.119
0.020,-0.083,-0.103,0.032,0.062,-0.092,0.089,0.001,-0.125,-0.207,-0.190,-0.120
0.015,-0.089,-0.104,0.037,0.060,-0.096,0.090,-0.007,-0.126,-0.211,-0.191,-0.120
-0.005,-0.110,-0.105,0.058,0.050,-0.107,0.090,-0.015,-0.130,-0.215,-0.195,-0.120
0.015,-0.115,-0.130,0.050,0.073,-0.122,0.086,-0.022,-0.133,-0.215,-0.198,-0.120
0.019,-0.117,-0.136,0.049,0.077,-0.127,0.084,-0.035,-0.144,-0.219,-0.209,-0.122
0.001,-0.123,-0.124,0.061,0.063,-0.124,0.086,-0.041,-0.153,-0.232,-0.217,-0.128
0.005,-0.125,-0.130,0.060,0.068,-0.127,0.084,-0.040,-0.156,-0.240,-0.214,-0.129
0.025,-0.130,-0.155,0.053,0.090,-0.142,0.080,-0.040,-0.160,-0.240,-0.215,-0.130
-0.003,-0.159,-0.156,0.081,0.077,-0.158,0.080,-0.040,-0.164,-0.256,-0.231,-0.151
-0.016,-0.170,-0.154,0.094,0.069,-0.162,0.081,-0.040,-0.168,-0.265,-0.240,-0.157
-0.017,-0.172,-0.155,0.095,0.069,-0.163,0.078,-0.040,-0.171,-0.265,-0.239,-0.154
-0.028,-0.183,-0.155,0.106,0.064,-0.168,0.075,-0.040,-0.169,-0.265,-0.241,-0.155
-0.035,-0.190,-0.155,0.113,0.060,-0.172,0.075,-0.040,-0.170,-0.265,-0.245,-0.155
-0.031,-0.186,-0.155,0.109,0.062,-0.170,0.071,-0.040,-0.182,-0.265,-0.244,-0.154
-0.029,-0.184,-0.155,0.107,0.063,-0.170,0.069,-0.040,-0.189,-0.268,-0.251,-0.161
-0.031,-0.186,-0.155,0.108,0.063,-0.170,0.071,-0.040,-0.190,-0.270,-0.256,-0.168
-0.020,-0.184,-0.164,0.102,0.072,-0.173,0.069,-0.040,-0.190,-0.271,-0.254,-0.170
-0.005,-0.185,-0.180,0.095,0.088,-0.182,0.065,-0.040,-0.190,-0.275,-0.255,-0.170
-0.025,-0.202,-0.177,0.114,0.076,-0.189,0.065,-0.044,-0.194,-0.275,-0.267,-0.183
-0.033,-0.207,-0.174,0.121,0.071,-0.191,0.066,-0.049,-0.196,-0.278,-0.274,-0.183
-0.028,-0.203,-0.175,0.116,0.074,-0.189,0.063,-0.048,-0.194,-0.280,-0.275,-0.179
-0.033,-0.208,-0.175,0.121,0.072,-0.191,0.060,-0.044,-0.196,-0.281,-0.275,-0.180
-0.045,-0.220,-0.175,0.133,0.065,-0.197,0.060,-0.045,-0.200,-0.285,-0.275,-0.180
-0.046,-0.221,-0.175,0.134,0.065,-0.197,0.060,-0.045,-0.201,-0.285,-0.279,-0.180
-0.045,-0.220,-0.175,0.133,0.065,-0.197,0.057,-0.045,-0.197,-0.288,-0.280,-0.180
-0.045,-0.220,-0.175,0.133,0.065,-0.197,0.054,-0.045,-0.195,-0.291,-0.280,-0.180
-0.045,-0.220,-0.175,0.133,0.065,-0.197,0.055,-0.045,-0.194,-0.290,-0.279,-0.180
-0.045,-0.220,-0.175,0.133,0.065,-0.197,0.055,-0.045,-0.190,-0.290,-0.275,-0.180
-0.045,-0.220,-0.175,0.133,0.065,-0.197,0.055,-0.045,-0.190,-0.290,-0.275,-0.180
-0.045,-0.220,-0.175,0.133,0.065,-0.197,0.055,-0.045,-0.191,-0.290,-0.275,-0.181
-0.045,-0.220,-0.175,0.133,0.065,-0.197,0.055,-0.045,-0.188,-0.290,-0.275,-0.178
-0.045,-0.220,-0.175,0.133,0.065,-0.197,0.055,-0.044,-0.185,-0.290,-0.274,-0.175
-0.045,-0.220,-0.175,0.133,0.065,-0.197,0.055,-0.040,-0.185,-0.290,-0.270,-0.175
-0.045,-0.220,-0.175,0.133,0.065,-0.197,0.051,-0.040,-0.181,-0.290,-0.270,-0.175
-0.044,-0.220,-0.176,0.133,0.066,-0.198,0.050,-0.040,-0.179,-0.290,-0.270,-0.175
-0.048,-0.220,-0.172,0.135,0.062,-0.195,0.050,-0.040,-0.181,-0.290,-0.270,-0.175
-0.057,-0.220,-0.163,0.139,0.053,-0.191,0.050,-0.040,-0.179,-0.290,-0.270,-0.175
-0.060,-0.220,-0.160,0.140,0.050,-0.190,0.050,-0.040,-0.175,-0.290,-0.270,-0.175
-0.064,-0.220,-0.156,0.142,0.046,-0.188,0.050,-0.040,-0.175,-0.290,-0.266,-0.175
-0.068,-0.220,-0.152,0.144,0.042,-0.186,0.050,-0.040,-0.172,-0.290,-0.265,-0.175
-0.071,-0.220,-0.149,0.146,0.039,-0.184,0.050,-0.040,-0.169,-0.290,-0.265,-0.175
-0.078,-0.220,-0.142,0.149,0.032,-0.181,0.049,-0.041,-0.170,-0.290,-0.265,-0.175
-0.080,-0.220,-0.140,0.150,0.030,-0.180,0.040,-0.040,-0.170,-0.290,-0.265,-0.175
-0.050,-0.220,-0.170,0.135,0.060,-0.194,0.029,-0.024,-0.166,-0.290,-0.264,-0.174
-0.051,-0.222,-0.170,0.137,0.059,-0.196,0.044,-0.009,-0.163,-0.290,-0.273,-0.183
-0.062,-0.214,-0.152,0.138,0.045,-0.183,0.063,0.013,-0.170,-0.291,-0.287,-0.196
-0.061,-0.203,-0.143,0.133,0.042,-0.173,0.090,0.078,-0.156,-0.287,-0.306,-0.218
-0.060,-0.195,-0.135,0.128,0.038,-0.165,0.140,0.195,-0.100,-0.275,-0.320,-0.245
-0.033,-0.164,-0.131,0.099,0.049,-0.147,0.163,0.315,-0.056,-0.268,-0.297,-0.229
-0.004,-0.131,-0.127,0.068,0.062,-0.129,0.169,0.438,0.034,-0.214,-0.276,-0.221
0.025,-0.098,-0.123,0.036,0.075,-0.110,0.186,0.543,0.157,-0.137,-0.231,-0.182
0.049,-0.070,-0.119,0.010,0.084,-0.094,0.183,0.607,0.291,-0.042,-0.148,-0.116
0.075,-0.040,-0.115,-0.017,0.095,-0.077,0.140,0.585,0.430,0.095,-0.045,-0.055
0.155,0.044,-0.111,-0.100,0.133,-0.033,0.111,0.391,0.518,0.257,0.108,0.070
0.256,0.149,-0.107,-0.202,0.181,0.021,0.001,0.100,0.578,0.438,0.282,0.209
0.371,0.266,-0.105,-0.318,0.237,0.081,-0.227,-0.355,0.598,0.652,0.507,0.389
0.504,0.400,-0.105,-0.451,0.304,0.147,-0.483,-0.860,0.598,0.909,0.778,0.618
0.620,0.515,-0.105,-0.567,0.362,0.205,-0.680,-1.160,0.650,1.195,1.045,0.840
0.669,0.563,-0.107,-0.615,0.388,0.228,-0.866,-1.315,0.755,1.465,1.299,1.034
0.724,0.637,-0.087,-0.680,0.405,0.275,-1.029,-1.482,0.798,1.724,1.536,1.220
0.764,0.746,-0.018,-0.755,0.391,0.364,-1.182,-1.708,0.788,2.005,1.778,1.410
0.753,0.857,0.104,-0.805,0.324,0.481,-1.331,-1.938,0.733,2.257,1.989,1.577
0.725,0.910,0.185,-0.818,0.270,0.547,-1.455,-2.090,0.605,2.335,2.070,1.670
0.734,0.791,0.058,-0.763,0.338,0.424,-1.513,-2.099,0.472,2.154,1.967,1.644
0.718,0.562,-0.156,-0.640,0.437,0.203,-1.454,-1.956,0.376,1.825,1.747,1.516
0.650,0.347,-0.303,-0.498,0.476,0.022,-1.334,-1.806,0.190,1.435,1.461,1.340
0.575,0.206,-0.369,-0.390,0.472,-0.081,-1.216,-1.711,-0.096,1.003,1.155,1.161
0.510,0.105,-0.405,-0.307,0.457,-0.150,-1.100,-1.595,-0.340,0.560,0.870,0.985
0.378,-0.008,-0.386,-0.185,0.382,-0.197,-0.972,-1.428,-0.515,0.173,0.590,0.792
0.303,-0.067,-0.369,-0.118,0.336,-0.218,-0.812,-1.227,-0.669,-0.219,0.277,0.580
0.246,-0.079,-0.325,-0.083,0.286,-0.202,-0.639,-0.996,-0.700,-0.432,0.043,0.394
0.175,-0.080,-0.255,-0.048,0.215,-0.167,-0.494,-0.776,-0.604,-0.427,-0.057,0.261
0.125,-0.080,-0.205,-0.022,0.165,-0.142,-0.395,-0.620,-0.515,-0.385,-0.100,0.165
0.068,-0.085,-0.153,0.009,0.111,-0.119,-0.312,-0.505,-0.454,-0.344,-0.128,0.099
0.058,-0.083,-0.141,0.013,0.100,-0.112,-0.251,-0.410,-0.396,-0.313,-0.159,0.047
0.052,-0.094,-0.146,0.021,0.100,-0.120,-0.197,-0.319,-0.333,-0.287,-0.173,-0.010
0.032,-0.113,-0.145,0.041,0.088,-0.128,-0.142,-0.227,-0.269,-0.267,-0.169,-0.050
0.025,-0.120,-0.145,0.048,0.085,-0.132,-0.095,-0.145,-0.210,-0.260,-0.170,-0.055
0.004,-0.141,-0.145,0.069,0.075,-0.143,-0.046,-0.089,-0.174,-0.252,-0.186,-0.074
-0.005,-0.150,-0.145,0.078,0.070,-0.147,-0.010,-0.029,-0.136,-0.244,-0.195,-0.091
-0.005,-0.151,-0.146,0.079,0.070,-0.148,0.021,0.007,-0.113,-0.236,-0.195,-0.097
-0.022,-0.166,-0.143,0.095,0.060,-0.154,0.044,0.018,-0.109,-0.228,-0.203,-0.110
-0.050,-0.190,-0.140,0.120,0.045,-0.165,0.050,0.035,-0.105,-0.220,-0.215,-0.135
-0.035,-0.191,-0.156,0.113,0.060,-0.174,0.055,0.051,-0.101,-0.216,-0.211,-0.140
-0.024,-0.189,-0.165,0.107,0.071,-0.177,0.053,0.064,-0.094,-0.212,-0.209,-0.140
-0.027,-0.190,-0.164,0.109,0.068,-0.176,0.063,0.076,-0.087,-0.210,-0.211,-0.140
-0.022,-0.190,-0.168,0.106,0.073,-0.178,0.076,0.088,-0.084,-0.209,-0.209,-0.141
-0.010,-0.190,-0.180,0.100,0.085,-0.185,0.075,0.100,-0.080,-0.205,-0.210,-0.145
-0.014,-0.190,-0.176,0.102,0.081,-0.183,0.091,0.108,-0.076,-0.205,-0.222,-0.145
-0.016,-0.190,-0.174,0.103,0.079,-0.181,0.100,0.116,-0.075,-0.202,-0.229,-0.145
-0.015,-0.191,-0.176,0.103,0.081,-0.183,0.101,0.122,-0.076,-0.200,-0.231,-0.146
-0.024,-0.198,-0.174,0.111,0.076,-0.186,0.106,0.126,-0.074,-0.199,-0.229,-0.153
-0.040,-0.210,-0.170,0.125,0.065,-0.190,0.110,0.130,-0.070,-0.195,-0.225,-0.165
-0.037,-0.207,-0.170,0.122,0.067,-0.188,0.110,0.130,-0.070,-0.195,-0.225,-0.162
-0.031,-0.201,-0.170,0.116,0.070,-0.185,0.109,0.129,-0.071,-0.192,-0.222,-0.156
-0.030,-0.200,-0.170,0.115,0.070,-0.185,0.112,0.133,-0.067,-0.190,-0.219,-0.155
-0.030,-0.199,-0.169,0.115,0.070,-0.184,0.115,0.142,-0.058,-0.189,-0.220,-0.154
-0.030,-0.195,-0.165,0.113,0.068,-0.180,0.115,0.150,-0.050,-0.185,-0.220,-0.150
-0.030,-0.195,-0.165,0.113,0.068,-0.180,0.115,0.154,-0.042,-0.185,-0.216,-0.150
-0.027,-0.193,-0.166,0.110,0.069,-0.179,0.113,0.157,-0.034,-0.182,-0.215,-0.148
-0.024,-0.187,-0.163,0.106,0.069,-0.175,0.121,0.166,-0.026,-0.180,-0.213,-0.142
-0.025,-0.185,-0.160,0.105,0.068,-0.172,0.130,0.176,-0.019,-0.179,-0.209,-0.140
-0.025,-0.185,-0.160,0.105,0.068,-0.172,0.125,0.175,-0.015,-0.170,-0.210,-0.140
-0.021,-0.181,-0.160,0.101,0.070,-0.170,0.125,0.175,-0.007,-0.166,-0.211,-0.136
-0.019,-0.179,-0.161,0.099,0.071,-0.170,0.125,0.177,0.002,-0.159,-0.204,-0.135
-0.024,-0.182,-0.158,0.103,0.067,-0.170,0.125,0.184,0.007,-0.153,-0.197,-0.133
-0.031,-0.185,-0.155,0.109,0.062,-0.170,0.125,0.192,0.012,-0.148,-0.194,-0.129
-0.030,-0.185,-0.155,0.108,0.063,-0.170,0.125,0.200,0.020,-0.140,-0.190,-0.130
-0.030,-0.185,-0.155,0.108,0.063,-0.170,0.125,0.209,0.028,-0.136,-0.182,-0.130
-0.030,-0.185,-0.155,0.108,0.063,-0.170,0.125,0.212,0.033,-0.129,-0.176,-0.127
-0.030,-0.185,-0.155,0.108,0.063,-0.170,0.125,0.221,0.037,-0.122,-0.174,-0.124
-0.031,-0.186,-0.155,0.109,0.063,-0.170,0.125,0.232,0.041,-0.119,-0.168,-0.125
-0.030,-0.185,-0.155,0.108,0.063,-0.170,0.125,0.235,0.045,-0.115,-0.160,-0.125
-0.018,-0.173,-0.155,0.096,0.068,-0.164,0.125,0.239,0.048,-0.107,-0.156,-0.117
-0.008,-0.163,-0.155,0.086,0.073,-0.159,0.126,0.241,0.063,-0.101,-0.149,-0.108
-0.002,-0.157,-0.155,0.080,0.076,-0.155,0.123,0.253,0.073,-0.099,-0.143,-0.103
0.008,-0.147,-0.155,0.070,0.082,-0.151,0.120,0.266,0.078,-0.093,-0.138,-0.098
0.020,-0.135,-0.155,0.058,0.088,-0.145,0.120,0.265,0.095,-0.080,-0.130,-0.090
0.020,-0.127,-0.147,0.054,0.084,-0.137,0.120,0.280,0.110,-0.072,-0.126,-0.081
0.022,-0.119,-0.141,0.049,0.082,-0.130,0.120,0.301,0.134,-0.065,-0.119,-0.077
0.028,-0.111,-0.139,0.041,0.084,-0.124,0.120,0.316,0.152,-0.054,-0.111,-0.071
0.030,-0.104,-0.133,0.038,0.082,-0.118,0.120,0.321,0.155,-0.042,-0.103,-0.064
0.025,-0.100,-0.125,0.038,0.075,-0.112,0.120,0.325,0.160,-0.035,-0.095,-0.060
0.024,-0.096,-0.121,0.036,0.073,-0.108,0.120,0.340,0.175,-0.028,-0.087,-0.056
0.028,-0.089,-0.117,0.031,0.073,-0.103,0.120,0.361,0.193,-0.013,-0.078,-0.052
0.030,-0.082,-0.113,0.027,0.072,-0.098,0.120,0.376,0.206,0.001,-0.073,-0.048
0.031,-0.079,-0.110,0.024,0.070,-0.094,0.120,0.389,0.219,0.014,-0.068,-0.044
0.035,-0.075,-0.110,0.020,0.073,-0.092,0.120,0.410,0.240,0.030,-0.055,-0.040
0.039,-0.067,-0.106,0.015,0.073,-0.086,0.120,0.422,0.269,0.042,-0.047,-0.032
0.045,-0.059,-0.104,0.007,0.075,-0.082,0.117,0.436,0.288,0.057,-0.036,-0.024
0.055,-0.051,-0.106,-0.001,0.081,-0.078,0.115,0.455,0.305,0.073,-0.026,-0.016
0.061,-0.043,-0.104,-0.009,0.083,-0.073,0.114,0.474,0.324,0.081,-0.017,-0.008
0.065,-0.035,-0.100,-0.015,0.083,-0.067,0.110,0.485,0.335,0.085,-0.005,0.000
0.073,-0.027,-0.100,-0.023,0.087,-0.063,0.110,0.496,0.345,0.100,0.003,0.008
0.078,-0.019,-0.097,-0.029,0.088,-0.058,0.107,0.518,0.371,0.118,0.014,0.013
0.083,-0.011,-0.094,-0.036,0.089,-0.053,0.104,0.540,0.396,0.130,0.026,0.017
0.092,-0.003,-0.095,-0.044,0.094,-0.049,0.105,0.561,0.415,0.146,0.038,0.029
0.100,0.005,-0.095,-0.052,0.097,-0.045,0.105,0.585,0.440,0.175,0.050,0.045
0.100,0.009,-0.091,-0.054,0.095,-0.041,0.101,0.602,0.465,0.196,0.062,0.049
0.102,0.015,-0.087,-0.058,0.095,-0.035,0.100,0.615,0.485,0.214,0.075,0.056
0.108,0.025,-0.083,-0.066,0.095,-0.029,0.098,0.639,0.507,0.236,0.100,0.077
0.110,0.031,-0.079,-0.070,0.094,-0.024,0.095,0.664,0.530,0.252,0.122,0.090
0.110,0.035,-0.075,-0.072,0.092,-0.020,0.095,0.675,0.545,0.260,0.125,0.085
0.126,0.055,-0.071,-0.090,0.098,-0.008,0.091,0.694,0.560,0.280,0.145,0.101
0.139,0.072,-0.067,-0.105,0.103,0.002,0.089,0.716,0.586,0.299,0.157,0.112
0.138,0.075,-0.063,-0.106,0.099,0.006,0.090,0.734,0.610,0.310,0.164,0.118
0.136,0.076,-0.060,-0.106,0.098,0.008,0.089,0.748,0.623,0.325,0.180,0.128
0.150,0.090,-0.060,-0.120,0.105,0.015,0.085,0.760,0.640,0.355,0.200,0.140
0.164,0.108,-0.056,-0.135,0.110,0.026,0.081,0.780,0.673,0.385,0.217,0.156
0.164,0.109,-0.055,-0.136,0.110,0.026,0.076,0.795,0.694,0.399,0.227,0.169
0.170,0.117,-0.053,-0.143,0.112,0.032,0.075,0.804,0.708,0.415,0.248,0.181
0.182,0.132,-0.050,-0.157,0.116,0.041,0.074,0.813,0.723,0.433,0.268,0.192
0.180,0.130,-0.050,-0.155,0.115,0.040,0.070,0.825,0.735,0.440,0.270,0.195
0.173,0.128,-0.046,-0.150,0.110,0.041,0.066,0.833,0.747,0.456,0.282,0.194
0.192,0.147,-0.045,-0.169,0.118,0.050,0.065,0.840,0.761,0.468,0.293,0.203
0.214,0.170,-0.043,-0.192,0.128,0.063,0.064,0.852,0.780,0.488,0.309,0.217
0.222,0.182,-0.040,-0.202,0.131,0.071,0.059,0.860,0.799,0.516,0.330,0.235
0.225,0.185,-0.040,-0.205,0.132,0.072,0.055,0.850,0.810,0.530,0.345,0.250
0.224,0.188,-0.036,-0.205,0.130,0.075,0.054,0.842,0.824,0.545,0.348,0.249
0.235,0.200,-0.034,-0.217,0.134,0.083,0.058,0.834,0.821,0.565,0.364,0.259
0.239,0.203,-0.036,-0.221,0.137,0.084,0.061,0.826,0.811,0.568,0.367,0.265
0.226,0.192,-0.034,-0.209,0.130,0.079,0.060,0.818,0.803,0.558,0.352,0.259
0.215,0.185,-0.030,-0.200,0.122,0.077,0.060,0.810,0.795,0.555,0.345,0.255
0.211,0.181,-0.030,-0.196,0.120,0.076,0.060,0.804,0.793,0.546,0.337,0.251
0.206,0.175,-0.031,-0.190,0.118,0.072,0.060,0.780,0.767,0.544,0.329,0.247
0.193,0.165,-0.028,-0.179,0.110,0.069,0.060,0.752,0.737,0.528,0.321,0.243
0.194,0.159,-0.034,-0.176,0.114,0.063,0.060,0.720,0.705,0.498,0.314,0.240
0.210,0.155,-0.055,-0.182,0.132,0.050,0.060,0.670,0.655,0.470,0.305,0.235
0.187,0.135,-0.052,-0.161,0.119,0.042,0.064,0.626,0.611,0.430,0.277,0.215
0.167,0.118,-0.049,-0.142,0.108,0.034,0.065,0.582,0.562,0.394,0.253,0.199
0.150,0.101,-0.049,-0.125,0.100,0.026,0.065,0.540,0.509,0.351,0.222,0.177
0.122,0.080,-0.043,-0.100,0.082,0.018,0.065,0.499,0.456,0.297,0.180,0.148
0.105,0.060,-0.045,-0.082,0.075,0.007,0.065,0.450,0.395,0.250,0.145,0.125
0.127,0.044,-0.083,-0.085,0.105,-0.020,0.065,0.402,0.339,0.210,0.117,0.101
0.119,0.028,-0.091,-0.073,0.105,-0.031,0.065,0.354,0.283,0.171,0.090,0.077
0.095,0.011,-0.083,-0.053,0.089,-0.035,0.065,0.307,0.228,0.128,0.058,0.053
0.082,-0.003,-0.085,-0.039,0.084,-0.044,0.065,0.265,0.178,0.084,0.021,0.029
0.070,-0.015,-0.085,-0.027,0.078,-0.050,0.065,0.225,0.135,0.045,-0.010,0.010
0.051,-0.034,-0.085,-0.008,0.068,-0.059,0.065,0.189,0.091,0.009,-0.035,-0.006
0.026,-0.056,-0.083,0.015,0.055,-0.069,0.067,0.155,0.050,-0.027,-0.055,-0.022
0.022,-0.071,-0.093,0.025,0.058,-0.082,0.076,0.126,0.009,-0.062,-0.076,-0.038
0.022,-0.084,-0.106,0.032,0.064,-0.095,0.087,0.098,-0.028,-0.092,-0.102,-0.054
0.000,-0.105,-0.105,0.053,0.053,-0.105,0.090,0.070,-0.055,-0.120,-0.130,-0.070
-0.002,-0.123,-0.121,0.063,0.060,-0.122,0.090,0.045,-0.087,-0.148,-0.151,-0.090
0.003,-0.127,-0.130,0.062,0.067,-0.129,0.089,0.030,-0.115,-0.172,-0.165,-0.106
-0.010,-0.138,-0.128,0.074,0.059,-0.133,0.092,0.021,-0.133,-0.186,-0.176,-0.112
-0.027,-0.160,-0.133,0.094,0.054,-0.146,0.095,0.013,-0.149,-0.199,-0.188,-0.117
-0.025,-0.175,-0.150,0.100,0.063,-0.162,0.095,0.005,-0.165,-0.215,-0.200,-0.125
-0.025,-0.180,-0.155,0.103,0.065,-0.167,0.095,-0.007,-0.170,-0.220,-0.205,-0.130
-0.024,-0.180,-0.155,0.103,0.065,-0.167,0.092,-0.016,-0.172,-0.222,-0.205,-0.130
-0.027,-0.182,-0.155,0.105,0.064,-0.168,0.090,-0.024,-0.179,-0.229,-0.206,-0.132
-0.030,-0.186,-0.156,0.108,0.064,-0.171,0.090,-0.032,-0.186,-0.237,-0.213,-0.136
-0.025,-0.185,-0.160,0.105,0.068,-0.172,0.090,-0.040,-0.190,-0.245,-0.225,-0.140
-0.021,-0.181,-0.160,0.101,0.070,-0.171,0.091,-0.044,-0.199,-0.258,-0.230,-0.153
-0.017,-0.177,-0.160,0.097,0.072,-0.168,0.084,-0.049,-0.198,-0.258,-0.230,-0.153
-0.014,-0.173,-0.158,0.094,0.072,-0.165,0.094,-0.049,-0.195,-0.255,-0.232,-0.150
-0.015,-0.170,-0.155,0.093,0.070,-0.162,0.112,-0.044,-0.194,-0.254,-0.236,-0.149
-0.015,-0.170,-0.155,0.093,0.070,-0.162,0.110,-0.040,-0.190,-0.250,-0.235,-0.145
-0.011,-0.166,-0.155,0.089,0.073,-0.161,0.110,-0.036,-0.190,-0.250,-0.231,-0.145
-0.009,-0.161,-0.152,0.086,0.071,-0.157,0.111,-0.032,-0.187,-0.247,-0.230,-0.142
-0.011,-0.160,-0.149,0.085,0.069,-0.155,0.109,-0.027,-0.185,-0.245,-0.228,-0.140
-0.009,-0.159,-0.150,0.084,0.071,-0.155,0.113,-0.025,-0.184,-0.244,-0.225,-0.139
-0.005,-0.155,-0.150,0.080,0.073,-0.152,0.125,-0.025,-0.180,-0.240,-0.225,-0.135
-0.005,-0.150,-0.146,0.078,0.071,-0.148,0.121,-0.013,-0.180,-0.240,-0.221,-0.135
-0.006,-0.151,-0.145,0.079,0.069,-0.147,0.120,-0.003,-0.177,-0.237,-0.220,-0.132
-0.002,-0.147,-0.145,0.075,0.071,-0.145,0.119,0.004,-0.175,-0.235,-0.219,-0.130
0.008,-0.138,-0.146,0.066,0.077,-0.141,0.113,0.012,-0.174,-0.234,-0.214,-0.129
0.015,-0.130,-0.145,0.058,0.080,-0.137,0.115,0.020,-0.165,-0.225,-0.210,-0.125
0.011,-0.122,-0.133,0.055,0.072,-0.128,0.136,0.028,-0.161,-0.221,-0.206,-0.125
0.009,-0.114,-0.123,0.052,0.066,-0.119,0.139,0.035,-0.154,-0.218,-0.202,-0.122
0.011,-0.106,-0.117,0.047,0.064,-0.111,0.134,0.046,-0.148,-0.211,-0.198,-0.120
0.008,-0.099,-0.107,0.045,0.058,-0.103,0.135,0.057,-0.143,-0.204,-0.194,-0.119
0.000,-0.095,-0.095,0.048,0.048,-0.095,0.135,0.060,-0.135,-0.200,-0.190,-0.115
0.000,-0.087,-0.087,0.044,0.044,-0.087,0.135,0.060,-0.131,-0.196,-0.186,-0.115
-0.002,-0.082,-0.080,0.042,0.039,-0.080,0.135,0.063,-0.127,-0.192,-0.182,-0.112
-0.008,-0.078,-0.070,0.043,0.031,-0.074,0.135,0.064,-0.123,-0.190,-0.178,-0.109
0.000,-0.074,-0.074,0.037,0.037,-0.073,0.135,0.067,-0.120,-0.190,-0.174,-0.110
0.025,-0.070,-0.095,0.023,0.060,-0.082,0.135,0.080,-0.120,-0.190,-0.170,-0.110
0.030,-0.066,-0.096,0.018,0.064,-0.081,0.131,0.081,-0.116,-0.190,-0.166,-0.110
0.032,-0.062,-0.094,0.015,0.064,-0.078,0.130,0.080,-0.115,-0.190,-0.162,-0.110
0.038,-0.058,-0.095,0.011,0.066,-0.076,0.130,0.081,-0.114,-0.190,-0.158,-0.110
0.040,-0.055,-0.095,0.008,0.068,-0.075,0.130,0.079,-0.109,-0.190,-0.155,-0.110
0.040,-0.055,-0.095,0.008,0.068,-0.075,0.130,0.080,-0.105,-0.190,-0.155,-0.110
0.040,-0.055,-0.095,0.008,0.068,-0.075,0.130,0.094,-0.105,-0.190,-0.155,-0.110
0.040,-0.055,-0.095,0.008,0.068,-0.075,0.130,0.088,-0.102,-0.190,-0.152,-0.110
0.039,-0.056,-0.095,0.009,0.068,-0.075,0.131,0.075,-0.099,-0.190,-0.150,-0.110
0.041,-0.054,-0.095,0.007,0.068,-0.074,0.127,0.067,-0.101,-0.190,-0.150,-0.110
0.040,-0.055,-0.095,0.008,0.068,-0.075,0.110,0.055,-0.105,-0.190,-0.150,-0.110
0.020,-0.076,-0.096,0.029,0.058,-0.085,0.098,0.047,-0.108,-0.190,-0.154,-0.110
0.012,-0.081,-0.092,0.035,0.052,-0.086,0.083,0.036,-0.121,-0.190,-0.158,-0.110
0.035,-0.069,-0.104,0.017,0.070,-0.087,0.068,0.026,-0.137,-0.189,-0.164,-0.110
0.047,-0.075,-0.122,0.014,0.085,-0.099,0.059,0.017,-0.147,-0.193,-0.171,-0.110
0.025,-0.105,-0.130,0.040,0.078,-0.117,0.055,0.005,-0.155,-0.205,-0.175,-0.110
0.045,-0.111,-0.156,0.033,0.100,-0.133,0.051,-0.003,-0.158,-0.204,-0.179,-0.110
0.047,-0.111,-0.158,0.032,0.103,-0.134,0.050,-0.014,-0.169,-0.214,-0.183,-0.110
0.021,-0.123,-0.143,0.051,0.083,-0.133,0.049,-0.025,-0.179,-0.222,-0.187,-0.110
0.012,-0.138,-0.150,0.063,0.082,-0.144,0.044,-0.031,-0.180,-0.220,-0.191,-0.111
0.035,-0.140,-0.175,0.053,0.105,-0.157,0.040,-0.035,-0.180,-0.220,-0.195,-0.115
0.035,-0.137,-0.172,0.051,0.104,-0.154,0.039,-0.035,-0.184,-0.223,-0.199,-0.119
0.008,-0.161,-0.169,0.076,0.089,-0.165,0.049,-0.038,-0.185,-0.237,-0.203,-0.122
0.004,-0.165,-0.168,0.081,0.086,-0.167,0.060,-0.041,-0.187,-0.249,-0.206,-0.129
0.006,-0.158,-0.164,0.077,0.086,-0.161,0.067,-0.040,-0.190,-0.250,-0.213,-0.136
-0.020,-0.185,-0.165,0.103,0.073,-0.175,0.075,-0.040,-0.190,-0.250,-0.225,-0.140
-0.013,-0.179,-0.166,0.097,0.077,-0.172,0.075,-0.040,-0.194,-0.250,-0.230,-0.144
-0.007,-0.168,-0.162,0.088,0.078,-0.165,0.075,-0.040,-0.195,-0.249,-0.230,-0.148
-0.017,-0.177,-0.160,0.096,0.072,-0.168,0.075,-0.040,-0.197,-0.252,-0.232,-0.152
-0.035,-0.194,-0.159,0.114,0.062,-0.177,0.074,-0.040,-0.200,-0.255,-0.235,-0.156
-0.050,-0.205,-0.155,0.128,0.053,-0.180,0.075,-0.040,-0.200,-0.255,-0.235,-0.160
-0.054,-0.209,-0.155,0.132,0.051,-0.182,0.088,-0.040,-0.204,-0.259,-0.235,-0.160
-0.058,-0.211,-0.153,0.135,0.048,-0.182,0.088,-0.040,-0.209,-0.261,-0.236,-0.160
-0.047,-0.208,-0.161,0.127,0.057,-0.184,0.084,-0.039,-0.209,-0.258,-0.233,-0.160
-0.044,-0.214,-0.170,0.129,0.063,-0.192,0.084,-0.042,-0.212,-0.264,-0.239,-0.160
-0.065,-0.235,-0.170,0.150,0.053,-0.202,0.080,-0.055,-0.225,-0.285,-0.255,-0.160
-0.045,-0.232,-0.187,0.138,0.071,-0.209,0.080,-0.056,-0.230,-0.282,-0.252,-0.160
-0.040,-0.229,-0.189,0.135,0.074,-0.209,0.081,-0.055,-0.230,-0.279,-0.249,-0.160
-0.047,-0.230,-0.184,0.139,0.069,-0.207,0.078,-0.055,-0.230,-0.280,-0.250,-0.160
-0.045,-0.230,-0.185,0.138,0.070,-0.207,0.075,-0.055,-0.230,-0.280,-0.250,-0.160
-0.045,-0.230,-0.185,0.138,0.070,-0.207,0.075,-0.055,-0.230,-0.280,-0.250,-0.160
-0.045,-0.230,-0.185,0.138,0.070,-0.207,0.071,-0.055,-0.230,-0.280,-0.250,-0.160
-0.042,-0.227,-0.185,0.135,0.072,-0.206,0.069,-0.055,-0.230,-0.280,-0.250,-0.160
-0.039,-0.224,-0.185,0.132,0.073,-0.205,0.071,-0.055,-0.230,-0.280,-0.250,-0.160
-0.040,-0.225,-0.185,0.133,0.073,-0.205,0.069,-0.055,-0.230,-0.280,-0.250,-0.160
-0.040,-0.225,-0.185,0.133,0.073,-0.205,0.065,-0.055,-0.230,-0.280,-0.250,-0.160
-0.040,-0.225,-0.185,0.133,0.073,-0.205,0.065,-0.055,-0.230,-0.280,-0.250,-0.160
-0.039,-0.225,-0.186,0.133,0.074,-0.205,0.062,-0.055,-0.233,-0.280,-0.250,-0.160
-0.042,-0.225,-0.183,0.134,0.071,-0.204,0.059,-0.055,-0.236,-0.280,-0.250,-0.160
-0.045,-0.224,-0.180,0.134,0.068,-0.201,0.060,-0.055,-0.235,-0.280,-0.250,-0.160
-0.040,-0.220,-0.180,0.130,0.070,-0.200,0.060,-0.055,-0.235,-0.280,-0.250,-0.160
-0.040,-0.220,-0.180,0.130,0.070,-0.200,0.056,-0.055,-0.235,-0.280,-0.250,-0.160
-0.040,-0.220,-0.180,0.130,0.070,-0.200,0.054,-0.055,-0.235,-0.280,-0.250,-0.160
-0.040,-0.220,-0.180,0.130,0.070,-0.200,0.055,-0.055,-0.235,-0.280,-0.250,-0.160
-0.040,-0.220,-0.180,0.130,0.070,-0.200,0.054,-0.055,-0.235,-0.280,-0.250,-0.160
-0.040,-0.220,-0.180,0.130,0.070,-0.200,0.050,-0.055,-0.235,-0.280,-0.250,-0.160
-0.036,-0.216,-0.180,0.126,0.073,-0.198,0.046,-0.055,-0.235,-0.280,-0.250,-0.160
-0.035,-0.215,-0.180,0.125,0.073,-0.197,0.042,-0.057,-0.237,-0.280,-0.250,-0.162
-0.034,-0.215,-0.181,0.125,0.074,-0.198,0.037,-0.047,-0.229,-0.280,-0.248,-0.168
-0.037,-0.215,-0.178,0.126,0.071,-0.196,0.035,-0.025,-0.211,-0.280,-0.244,-0.170
-0.050,-0.215,-0.165,0.133,0.058,-0.190,0.045,-0.005,-0.195,-0.280,-0.245,-0.170
-0.058,-0.214,-0.156,0.137,0.050,-0.185,0.072,0.026,-0.178,-0.279,-0.263,-0.188
-0.067,-0.218,-0.151,0.143,0.043,-0.184,0.104,0.102,-0.170,-0.285,-0.290,-0.217
-0.053,-0.203,-0.150,0.128,0.049,-0.176,0.152,0.228,-0.136,-0.263,-0.288,-0.224
-0.025,-0.174,-0.149,0.099,0.062,-0.161,0.188,0.369,-0.059,-0.221,-0.266,-0.221
-0.005,-0.150,-0.145,0.078,0.070,-0.147,0.185,0.495,0.040,-0.185,-0.245,-0.220
0.035,-0.110,-0.145,0.038,0.090,-0.127,0.200,0.599,0.159,-0.109,-0.185,-0.167
0.070,-0.071,-0.142,0.001,0.106,-0.106,0.182,0.624,0.280,-0.007,-0.100,-0.099
0.117,-0.023,-0.140,-0.047,0.129,-0.081,0.166,0.538,0.402,0.127,0.022,-0.011
0.190,0.050,-0.139,-0.120,0.164,-0.044,0.124,0.348,0.506,0.285,0.173,0.106
0.280,0.145,-0.135,-0.212,0.207,0.005,-0.030,0.025,0.560,0.460,0.340,0.245
0.397,0.262,-0.135,-0.329,0.266,0.063,-0.259,-0.475,0.582,0.679,0.566,0.427
0.532,0.401,-0.131,-0.466,0.331,0.135,-0.494,-0.946,0.597,0.934,0.831,0.654
0.632,0.500,-0.133,-0.566,0.383,0.183,-0.697,-1.228,0.663,1.193,1.095,0.876
0.678,0.554,-0.124,-0.616,0.401,0.215,-0.881,-1.375,0.762,1.441,1.339,1.065
0.715,0.625,-0.090,-0.670,0.402,0.267,-1.055,-1.550,0.800,1.690,1.570,1.245
0.791,0.724,-0.067,-0.757,0.428,0.328,-1.199,-1.791,0.756,1.959,1.800,1.434
0.815,0.854,0.039,-0.834,0.388,0.446,-1.350,-1.995,0.724,2.191,1.997,1.602
0.777,0.877,0.100,-0.827,0.338,0.489,-1.473,-2.112,0.636,2.213,2.052,1.674
0.749,0.724,-0.024,-0.737,0.386,0.350,-1.500,-2.083,0.520,1.989,1.924,1.622
0.745,0.490,-0.255,-0.617,0.500,0.117,-1.420,-1.915,0.430,1.645,1.675,1.480
0.663,0.289,-0.375,-0.476,0.519,-0.043,-1.305,-1.800,0.183,1.251,1.378,1.293
0.551,0.161,-0.391,-0.355,0.471,-0.114,-1.184,-1.690,-0.094,0.815,1.064,1.105
0.471,0.057,-0.414,-0.264,0.443,-0.178,-1.069,-1.571,-0.342,0.402,0.778,0.926
0.406,-0.024,-0.430,-0.190,0.418,-0.227,-0.938,-1.411,-0.569,0.026,0.502,0.734
0.315,-0.060,-0.375,-0.127,0.345,-0.217,-0.775,-1.185,-0.705,-0.300,0.215,0.525
0.231,-0.102,-0.333,-0.064,0.282,-0.218,-0.622,-0.981,-0.653,-0.443,0.014,0.345
0.146,-0.117,-0.262,-0.014,0.204,-0.190,-0.479,-0.769,-0.583,-0.426,-0.055,0.234
0.086,-0.114,-0.201,0.014,0.144,-0.157,-0.376,-0.606,-0.533,-0.371,-0.079,0.155
0.050,-0.115,-0.165,0.033,0.108,-0.140,-0.307,-0.505,-0.468,-0.337,-0.113,0.085
0.010,-0.115,-0.125,0.053,0.068,-0.120,-0.235,-0.400,-0.400,-0.300,-0.135,0.035
-0.003,-0.115,-0.112,0.059,0.055,-0.113,-0.175,-0.294,-0.340,-0.262,-0.148,-0.020
-0.013,-0.116,-0.103,0.064,0.046,-0.109,-0.113,-0.206,-0.277,-0.246,-0.151,-0.046
-0.012,-0.112,-0.100,0.062,0.045,-0.106,-0.064,-0.139,-0.230,-0.243,-0.148,-0.054
-0.004,-0.120,-0.116,0.062,0.057,-0.118,-0.032,-0.080,-0.195,-0.239,-0.153,-0.071
-0.005,-0.150,-0.145,0.078,0.070,-0.147,0.000,-0.025,-0.160,-0.235,-0.170,-0.095
-0.010,-0.169,-0.159,0.089,0.075,-0.164,0.028,0.004,-0.150,-0.227,-0.175,-0.104
-0.010,-0.169,-0.159,0.090,0.074,-0.164,0.056,0.033,-0.147,-0.222,-0.179,-0.107
-0.026,-0.176,-0.150,0.101,0.062,-0.162,0.065,0.050,-0.143,-0.218,-0.192,-0.117
-0.032,-0.186,-0.154,0.109,0.062,-0.169,0.052,0.050,-0.138,-0.214,-0.200,-0.133
-0.010,-0.185,-0.175,0.098,0.083,-0.180,0.050,0.055,-0.130,-0.210,-0.195,-0.140
-0.026,-0.198,-0.172,0.112,0.073,-0.185,0.075,0.071,-0.126,-0.210,-0.195,-0.136
-0.029,-0.198,-0.170,0.113,0.071,-0.184,0.085,0.082,-0.123,-0.207,-0.196,-0.134
-0.025,-0.194,-0.168,0.110,0.072,-0.181,0.087,0.087,-0.116,-0.205,-0.193,-0.136
-0.031,-0.195,-0.164,0.114,0.067,-0.180,0.090,0.091,-0.109,-0.204,-0.198,-0.134
-0.030,-0.195,-0.165,0.113,0.068,-0.180,0.090,0.095,-0.105,-0.200,-0.215,-0.130
-0.025,-0.191,-0.166,0.109,0.070,-0.178,0.106,0.106,-0.101,-0.200,-0.212,-0.130
-0.028,-0.190,-0.162,0.109,0.067,-0.175,0.115,0.120,-0.094,-0.197,-0.206,-0.130
-0.030,-0.190,-0.160,0.110,0.065,-0.175,0.115,0.128,-0.087,-0.195,-0.205,-0.130
-0.031,-0.190,-0.159,0.111,0.064,-0.175,0.115,0.131,-0.084,-0.194,-0.204,-0.129
-0.035,-0.190,-0.155,0.113,0.060,-0.172,0.115,0.135,-0.080,-0.190,-0.200,-0.125
-0.031,-0.186,-0.155,0.109,0.062,-0.170,0.115,0.139,-0.076,-0.190,-0.200,-0.125
-0.029,-0.184,-0.156,0.107,0.064,-0.170,0.115,0.143,-0.072,-0.187,-0.198,-0.125
-0.033,-0.186,-0.153,0.109,0.061,-0.169,0.115,0.147,-0.068,-0.185,-0.192,-0.125
-0.034,-0.184,-0.150,0.109,0.058,-0.167,0.116,0.151,-0.064,-0.184,-0.190,-0.124
-0.030,-0.180,-0.150,0.105,0.060,-0.165,0.120,0.155,-0.060,-0.180,-0.190,-0.120
-0.034,-0.180,-0.146,0.107,0.056,-0.162,0.125,0.155,-0.055,-0.180,-0.186,-0.120
-0.036,-0.180,-0.144,0.108,0.054,-0.162,0.122,0.156,-0.056,-0.175,-0.185,-0.121
-0.035,-0.180,-0.146,0.108,0.055,-0.163,0.119,0.168,-0.050,-0.165,-0.184,-0.118
-0.035,-0.179,-0.144,0.108,0.055,-0.161,0.120,0.182,-0.037,-0.159,-0.179,-0.115
-0.035,-0.175,-0.140,0.105,0.053,-0.157,0.120,0.185,-0.030,-0.155,-0.175,-0.115
-0.035,-0.175,-0.140,0.105,0.053,-0.157,0.120,0.189,-0.023,-0.147,-0.171,-0.115
-0.034,-0.175,-0.141,0.104,0.054,-0.157,0.120,0.193,-0.011,-0.138,-0.167,-0.116
-0.038,-0.176,-0.138,0.107,0.051,-0.157,0.120,0.197,-0.001,-0.133,-0.163,-0.113
-0.039,-0.174,-0.135,0.107,0.049,-0.154,0.120,0.200,0.007,-0.128,-0.159,-0.110
-0.030,-0.165,-0.135,0.098,0.053,-0.150,0.120,0.205,0.015,-0.120,-0.155,-0.110
-0.030,-0.161,-0.130,0.096,0.050,-0.146,0.120,0.222,0.019,-0.116,-0.147,-0.110
-0.025,-0.158,-0.132,0.091,0.054,-0.145,0.120,0.229,0.026,-0.109,-0.141,-0.110
-0.030,-0.151,-0.121,0.091,0.046,-0.136,0.120,0.232,0.032,-0.103,-0.139,-0.108
-0.023,-0.144,-0.120,0.084,0.049,-0.132,0.120,0.236,0.037,-0.098,-0.133,-0.104
0.015,-0.140,-0.155,0.063,0.085,-0.147,0.120,0.240,0.050,-0.090,-0.125,-0.100
0.017,-0.136,-0.153,0.060,0.085,-0.144,0.116,0.252,0.058,-0.086,-0.121,-0.096
0.017,-0.129,-0.146,0.056,0.082,-0.137,0.115,0.264,0.068,-0.079,-0.118,-0.092
0.021,-0.122,-0.143,0.051,0.082,-0.133,0.115,0.277,0.082,-0.071,-0.111,-0.087
0.020,-0.119,-0.139,0.050,0.079,-0.129,0.115,0.285,0.091,-0.063,-0.104,-0.085
0.020,-0.115,-0.135,0.048,0.078,-0.125,0.115,0.285,0.095,-0.055,-0.100,-0.085
0.020,-0.111,-0.131,0.046,0.075,-0.121,0.115,0.297,0.111,-0.047,-0.092,-0.077
0.023,-0.107,-0.130,0.042,0.077,-0.118,0.115,0.308,0.125,-0.039,-0.087,-0.068
0.025,-0.103,-0.128,0.039,0.077,-0.115,0.115,0.326,0.136,-0.032,-0.081,-0.063
0.026,-0.098,-0.125,0.037,0.076,-0.111,0.115,0.342,0.148,-0.021,-0.074,-0.058
0.035,-0.090,-0.125,0.028,0.080,-0.107,0.115,0.345,0.165,-0.005,-0.070,-0.050
0.039,-0.082,-0.121,0.022,0.080,-0.101,0.115,0.369,0.190,0.007,-0.058,-0.042
0.045,-0.074,-0.119,0.014,0.082,-0.097,0.115,0.388,0.207,0.022,-0.046,-0.037
0.055,-0.066,-0.121,0.006,0.088,-0.093,0.115,0.405,0.225,0.036,-0.034,-0.032
0.061,-0.058,-0.119,-0.001,0.090,-0.088,0.116,0.423,0.244,0.049,-0.023,-0.023
0.065,-0.050,-0.115,-0.007,0.090,-0.082,0.120,0.435,0.260,0.065,-0.015,-0.015
0.073,-0.042,-0.115,-0.015,0.094,-0.078,0.119,0.455,0.280,0.077,-0.003,-0.007
0.079,-0.033,-0.112,-0.022,0.095,-0.073,0.126,0.471,0.297,0.089,0.009,0.001
0.081,-0.028,-0.109,-0.027,0.095,-0.069,0.130,0.492,0.314,0.100,0.021,0.009
0.087,-0.023,-0.111,-0.032,0.099,-0.066,0.123,0.514,0.336,0.114,0.032,0.017
0.095,-0.015,-0.110,-0.040,0.103,-0.062,0.120,0.525,0.360,0.135,0.040,0.025
0.091,-0.011,-0.102,-0.040,0.096,-0.057,0.120,0.540,0.381,0.156,0.053,0.038
0.093,-0.004,-0.096,-0.044,0.095,-0.050,0.117,0.562,0.396,0.165,0.060,0.039
0.095,0.002,-0.093,-0.048,0.094,-0.045,0.115,0.588,0.417,0.179,0.075,0.046
0.096,0.007,-0.089,-0.052,0.092,-0.040,0.115,0.609,0.440,0.199,0.092,0.056
0.105,0.020,-0.085,-0.062,0.095,-0.032,0.110,0.620,0.460,0.210,0.095,0.055
0.109,0.028,-0.081,-0.068,0.095,-0.027,0.105,0.639,0.488,0.229,0.114,0.074
0.116,0.039,-0.077,-0.077,0.096,-0.019,0.105,0.663,0.511,0.254,0.139,0.094
0.122,0.049,-0.073,-0.085,0.097,-0.012,0.103,0.686,0.529,0.274,0.158,0.102
0.127,0.058,-0.069,-0.092,0.097,-0.005,0.100,0.703,0.551,0.289,0.166,0.107
0.135,0.070,-0.065,-0.102,0.100,0.002,0.100,0.715,0.575,0.310,0.175,0.120
0.142,0.077,-0.065,-0.109,0.104,0.005,0.096,0.739,0.595,0.334,0.199,0.136
0.158,0.096,-0.062,-0.127,0.110,0.017,0.091,0.758,0.618,0.356,0.218,0.149
0.167,0.108,-0.060,-0.138,0.113,0.023,0.090,0.774,0.639,0.373,0.233,0.163
0.164,0.104,-0.060,-0.134,0.111,0.022,0.089,0.787,0.654,0.389,0.249,0.177
0.160,0.105,-0.055,-0.132,0.107,0.025,0.085,0.790,0.670,0.405,0.260,0.180
0.159,0.108,-0.050,-0.133,0.104,0.029,0.081,0.797,0.686,0.412,0.267,0.183
0.169,0.119,-0.050,-0.144,0.109,0.034,0.080,0.813,0.703,0.427,0.282,0.196
0.176,0.128,-0.048,-0.152,0.112,0.039,0.079,0.824,0.713,0.440,0.294,0.198
0.175,0.130,-0.045,-0.152,0.110,0.043,0.074,0.833,0.726,0.456,0.304,0.197
0.180,0.135,-0.045,-0.157,0.112,0.045,0.070,0.845,0.755,0.485,0.320,0.215
0.192,0.147,-0.045,-0.169,0.118,0.050,0.066,0.844,0.772,0.497,0.328,0.228
0.203,0.158,-0.045,-0.180,0.124,0.056,0.061,0.855,0.782,0.512,0.341,0.232
0.220,0.175,-0.045,-0.197,0.132,0.065,0.060,0.857,0.786,0.527,0.357,0.241
0.238,0.193,-0.045,-0.215,0.142,0.074,0.059,0.842,0.793,0.538,0.367,0.252
0.240,0.195,-0.045,-0.217,0.142,0.075,0.055,0.835,0.805,0.550,0.375,0.260
0.232,0.187,-0.045,-0.209,0.138,0.071,0.051,0.823,0.798,0.559,0.393,0.274
0.227,0.182,-0.045,-0.204,0.136,0.068,0.047,0.814,0.789,0.558,0.388,0.270
0.223,0.178,-0.045,-0.200,0.134,0.066,0.043,0.804,0.780,0.553,0.375,0.262
0.219,0.174,-0.045,-0.196,0.132,0.064,0.040,0.794,0.775,0.549,0.367,0.259
0.215,0.170,-0.045,-0.192,0.130,0.062,0.040,0.785,0.770,0.545,0.355,0.255
0.211,0.166,-0.045,-0.188,0.127,0.060,0.036,0.750,0.735,0.548,0.347,0.247
0.208,0.163,-0.045,-0.185,0.126,0.059,0.035,0.716,0.699,0.523,0.335,0.241
0.199,0.153,-0.046,-0.176,0.123,0.053,0.034,0.680,0.656,0.489,0.327,0.240
0.188,0.137,-0.051,-0.162,0.120,0.043,0.029,0.634,0.602,0.455,0.314,0.231
0.180,0.125,-0.055,-0.152,0.117,0.035,0.030,0.590,0.550,0.405,0.280,0.205
0.162,0.109,-0.053,-0.135,0.107,0.028,0.046,0.546,0.494,0.356,0.248,0.181
0.163,0.097,-0.066,-0.130,0.114,0.015,0.054,0.503,0.438,0.312,0.213,0.154
0.145,0.080,-0.066,-0.112,0.105,0.007,0.056,0.455,0.383,0.268,0.179,0.127
0.116,0.053,-0.063,-0.085,0.090,-0.005,0.061,0.402,0.333,0.224,0.147,0.105
0.115,0.030,-0.085,-0.072,0.100,-0.027,0.065,0.355,0.285,0.185,0.115,0.085
0.093,0.010,-0.083,-0.052,0.088,-0.036,0.065,0.311,0.229,0.149,0.087,0.065
0.061,-0.012,-0.072,-0.024,0.066,-0.042,0.068,0.269,0.175,0.110,0.057,0.044
0.063,-0.024,-0.087,-0.019,0.075,-0.055,0.070,0.231,0.126,0.070,0.024,0.027
0.073,-0.034,-0.107,-0.019,0.090,-0.070,0.070,0.197,0.078,0.030,-0.007,0.010
0.045,-0.055,-0.100,0.005,0.073,-0.077,0.075,0.165,0.035,-0.010,-0.035,-0.010
0.031,-0.068,-0.099,0.018,0.065,-0.084,0.082,0.133,-0.001,-0.046,-0.060,-0.031
0.026,-0.075,-0.101,0.025,0.063,-0.088,0.094,0.101,-0.038,-0.081,-0.077,-0.047
0.011,-0.087,-0.097,0.038,0.054,-0.092,0.103,0.071,-0.070,-0.106,-0.096,-0.065
0.000,-0.105,-0.105,0.052,0.052,-0.105,0.105,0.043,-0.097,-0.125,-0.121,-0.084
0.010,-0.120,-0.130,0.055,0.070,-0.125,0.105,0.020,-0.120,-0.145,-0.140,-0.095
0.009,-0.122,-0.131,0.057,0.071,-0.126,0.105,0.011,-0.136,-0.156,-0.148,-0.098
-0.014,-0.143,-0.129,0.079,0.058,-0.136,0.108,0.004,-0.155,-0.179,-0.162,-0.112
-0.030,-0.160,-0.130,0.095,0.051,-0.145,0.111,-0.004,-0.175,-0.196,-0.175,-0.124
-0.030,-0.160,-0.130,0.095,0.050,-0.145,0.110,-0.012,-0.186,-0.202,-0.181,-0.126
-0.035,-0.165,-0.130,0.100,0.048,-0.147,0.110,-0.020,-0.190,-0.215,-0.185,-0.130
-0.039,-0.169,-0.130,0.104,0.045,-0.150,0.115,-0.028,-0.202,-0.228,-0.189,-0.134
-0.040,-0.170,-0.130,0.105,0.045,-0.150,0.114,-0.036,-0.209,-0.234,-0.193,-0.138
-0.040,-0.170,-0.130,0.105,0.045,-0.150,0.120,-0.045,-0.210,-0.235,-0.197,-0.142
-0.040,-0.170,-0.130,0.105,0.045,-0.150,0.132,-0.050,-0.210,-0.235,-0.201,-0.145
-0.040,-0.170,-0.130,0.105,0.045,-0.150,0.135,-0.045,-0.210,-0.235,-0.205,-0.145
-0.048,-0.178,-0.130,0.113,0.041,-0.154,0.135,-0.045,-0.210,-0.234,-0.209,-0.149
-0.054,-0.182,-0.128,0.118,0.037,-0.155,0.135,-0.042,-0.212,-0.244,-0.214,-0.151
-0.041,-0.177,-0.136,0.109,0.048,-0.156,0.135,-0.040,-0.218,-0.253,-0.213,-0.148
-0.040,-0.185,-0.146,0.113,0.053,-0.165,0.135,-0.039,-0.220,-0.256,-0.210,-0.145
-0.070,-0.210,-0.140,0.140,0.035,-0.175,0.135,-0.035,-0.215,-0.260,-0.210,-0.145
-0.068,-0.203,-0.135,0.136,0.034,-0.169,0.139,-0.035,-0.210,-0.256,-0.206,-0.141
-0.061,-0.196,-0.135,0.129,0.037,-0.166,0.140,-0.032,-0.210,-0.252,-0.205,-0.139
-0.058,-0.191,-0.133,0.125,0.038,-0.162,0.140,-0.030,-0.209,-0.248,-0.203,-0.141
-0.054,-0.184,-0.130,0.119,0.038,-0.156,0.140,-0.029,-0.204,-0.244,-0.200,-0.139
-0.050,-0.180,-0.130,0.115,0.040,-0.155,0.140,-0.025,-0.200,-0.240,-0.200,-0.135
-0.045,-0.172,-0.126,0.109,0.041,-0.149,0.140,-0.025,-0.201,-0.236,-0.196,-0.135
-0.047,-0.168,-0.121,0.108,0.038,-0.144,0.137,-0.020,-0.195,-0.233,-0.195,-0.132
-0.037,-0.157,-0.120,0.097,0.042,-0.138,0.133,-0.011,-0.186,-0.226,-0.193,-0.129
-0.016,-0.135,-0.119,0.075,0.052,-0.127,0.129,-0.003,-0.178,-0.219,-0.190,-0.130
-0.005,-0.120,-0.115,0.063,0.055,-0.117,0.135,0.005,-0.170,-0.215,-0.190,-0.130
0.003,-0.112,-0.115,0.055,0.059,-0.113,0.157,0.013,-0.162,-0.211,-0.182,-0.122
0.008,-0.104,-0.112,0.048,0.060,-0.108,0.159,0.021,-0.154,-0.204,-0.177,-0.116
0.013,-0.096,-0.109,0.041,0.061,-0.103,0.154,0.029,-0.147,-0.197,-0.171,-0.114
0.022,-0.088,-0.110,0.033,0.066,-0.099,0.155,0.036,-0.145,-0.194,-0.164,-0.108
0.030,-0.080,-0.110,0.025,0.070,-0.095,0.155,0.040,-0.145,-0.190,-0.160,-0.100
0.038,-0.072,-0.110,0.017,0.074,-0.091,0.155,0.040,-0.145,-0.182,-0.152,-0.096
0.046,-0.064,-0.110,0.009,0.078,-0.087,0.155,0.038,-0.145,-0.177,-0.146,-0.091
0.053,-0.057,-0.110,0.002,0.082,-0.083,0.155,0.046,-0.145,-0.173,-0.147,-0.091
0.055,-0.055,-0.110,0.000,0.083,-0.082,0.155,0.056,-0.145,-0.169,-0.150,-0.096
0.055,-0.055,-0.110,0.000,0.083,-0.082,0.155,0.050,-0.145,-0.165,-0.150,-0.095
0.055,-0.055,-0.110,0.000,0.083,-0.082,0.151,0.046,-0.145,-0.161,-0.150,-0.095
0.056,-0.055,-0.111,0.000,0.084,-0.082,0.150,0.042,-0.145,-0.157,-0.150,-0.095
0.053,-0.055,-0.108,0.001,0.081,-0.081,0.150,0.038,-0.145,-0.155,-0.150,-0.095
0.050,-0.055,-0.105,0.003,0.078,-0.080,0.150,0.035,-0.145,-0.155,-0.150,-0.095
0.050,-0.055,-0.105,0.003,0.078,-0.080,0.150,0.035,-0.145,-0.155,-0.150,-0.095
0.050,-0.055,-0.105,0.003,0.078,-0.080,0.150,0.031,-0.145,-0.155,-0.150,-0.095
0.050,-0.055,-0.105,0.003,0.078,-0.080,0.150,0.027,-0.145,-0.155,-0.150,-0.095
0.050,-0.055,-0.105,0.003,0.078,-0.080,0.151,0.023,-0.145,-0.155,-0.150,-0.095
0.050,-0.055,-0.105,0.003,0.078,-0.080,0.147,0.019,-0.145,-0.155,-0.150,-0.095
0.050,-0.055,-0.105,0.003,0.078,-0.080,0.130,0.015,-0.145,-0.155,-0.150,-0.095
0.042,-0.063,-0.105,0.011,0.074,-0.084,0.118,0.016,-0.145,-0.163,-0.150,-0.095
0.038,-0.068,-0.106,0.015,0.072,-0.086,0.103,0.007,-0.147,-0.172,-0.150,-0.095
0.028,-0.075,-0.103,0.024,0.065,-0.089,0.088,-0.004,-0.154,-0.176,-0.150,-0.095
0.022,-0.088,-0.109,0.033,0.066,-0.098,0.078,-0.013,-0.161,-0.174,-0.150,-0.095
0.035,-0.095,-0.130,0.030,0.083,-0.112,0.075,-0.025,-0.165,-0.175,-0.150,-0.095
0.025,-0.103,-0.128,0.039,0.077,-0.115,0.075,-0.033,-0.173,-0.187,-0.154,-0.099
0.006,-0.111,-0.118,0.053,0.063,-0.114,0.072,-0.044,-0.178,-0.193,-0.158,-0.103
0.013,-0.118,-0.131,0.052,0.073,-0.124,0.070,-0.055,-0.183,-0.200,-0.162,-0.107
0.024,-0.130,-0.153,0.053,0.089,-0.141,0.069,-0.061,-0.185,-0.212,-0.166,-0.111
0.005,-0.150,-0.155,0.073,0.080,-0.152,0.065,-0.060,-0.185,-0.215,-0.170,-0.115
0.000,-0.155,-0.155,0.078,0.078,-0.155,0.064,-0.060,-0.197,-0.218,-0.179,-0.124
-0.001,-0.156,-0.155,0.079,0.077,-0.155,0.071,-0.058,-0.203,-0.229,-0.182,-0.126
-0.011,-0.166,-0.155,0.089,0.072,-0.160,0.076,-0.066,-0.210,-0.238,-0.193,-0.139
-0.021,-0.176,-0.155,0.099,0.067,-0.166,0.084,-0.075,-0.222,-0.240,-0.206,-0.158
-0.020,-0.175,-0.155,0.098,0.068,-0.165,0.100,-0.070,-0.225,-0.240,-0.200,-0.160
-0.020,-0.175,-0.155,0.098,0.068,-0.165,0.097,-0.070,-0.225,-0.240,-0.199,-0.160
-0.021,-0.176,-0.155,0.099,0.068,-0.165,0.095,-0.070,-0.225,-0.240,-0.201,-0.160
-0.018,-0.173,-0.155,0.096,0.069,-0.164,0.093,-0.070,-0.225,-0.242,-0.199,-0.160
-0.024,-0.179,-0.155,0.102,0.066,-0.167,0.089,-0.070,-0.225,-0.246,-0.202,-0.160
-0.045,-0.200,-0.155,0.123,0.055,-0.177,0.090,-0.070,-0.225,-0.250,-0.215,-0.160
-0.043,-0.198,-0.155,0.121,0.057,-0.177,0.090,-0.070,-0.225,-0.251,-0.216,-0.160
-0.035,-0.188,-0.153,0.111,0.059,-0.170,0.087,-0.070,-0.228,-0.248,-0.213,-0.163
-0.054,-0.202,-0.147,0.128,0.046,-0.174,0.084,-0.070,-0.231,-0.256,-0.221,-0.165
-0.068,-0.222,-0.154,0.145,0.044,-0.188,0.085,-0.070,-0.230,-0.266,-0.230,-0.166
-0.040,-0.215,-0.175,0.128,0.068,-0.195,0.085,-0.070,-0.230,-0.265,-0.225,-0.170
-0.041,-0.213,-0.172,0.127,0.066,-0.192,0.081,-0.070,-0.230,-0.265,-0.225,-0.170
-0.059,-0.228,-0.169,0.143,0.056,-0.198,0.079,-0.071,-0.227,-0.265,-0.225,-0.170
-0.067,-0.237,-0.170,0.152,0.052,-0.203,0.081,-0.068,-0.224,-0.265,-0.225,-0.170
-0.064,-0.235,-0.170,0.149,0.053,-0.202,0.079,-0.065,-0.225,-0.265,-0.225,-0.170
-0.065,-0.235,-0.170,0.150,0.053,-0.202,0.075,-0.065,-0.225,-0.265,-0.225,-0.170
-0.069,-0.235,-0.166,0.153,0.049,-0.200,0.075,-0.065,-0.225,-0.265,-0.225,-0.170
-0.070,-0.235,-0.165,0.153,0.048,-0.200,0.072,-0.065,-0.225,-0.265,-0.225,-0.170
-0.070,-0.235,-0.165,0.153,0.048,-0.200,0.069,-0.065,-0.225,-0.265,-0.225,-0.170
-0.070,-0.235,-0.165,0.153,0.048,-0.200,0.070,-0.065,-0.225,-0.265,-0.225,-0.170
-0.070,-0.235,-0.165,0.153,0.048,-0.200,0.070,-0.065,-0.225,-0.265,-0.225,-0.170
-0.070,-0.235,-0.165,0.153,0.048,-0.200,0.066,-0.065,-0.225,-0.265,-0.221,-0.170
-0.073,-0.235,-0.162,0.154,0.045,-0.198,0.064,-0.065,-0.226,-0.265,-0.220,-0.170
-0.076,-0.235,-0.159,0.155,0.042,-0.197,0.066,-0.065,-0.223,-0.265,-0.220,-0.170
-0.075,-0.235,-0.160,0.155,0.043,-0.197,0.064,-0.065,-0.220,-0.265,-0.220,-0.170
-0.075,-0.235,-0.160,0.155,0.043,-0.197,0.060,-0.065,-0.220,-0.265,-0.220,-0.170
-0.075,-0.235,-0.160,0.155,0.043,-0.197,0.060,-0.065,-0.220,-0.265,-0.220,-0.170
-0.078,-0.235,-0.157,0.157,0.040,-0.196,0.061,-0.065,-0.220,-0.265,-0.220,-0.170
-0.080,-0.235,-0.154,0.158,0.038,-0.195,0.058,-0.065,-0.220,-0.265,-0.220,-0.170
-0.080,-0.235,-0.155,0.158,0.038,-0.195,0.055,-0.065,-0.220,-0.265,-0.220,-0.170
-0.080,-0.235,-0.155,0.158,0.038,-0.195,0.055,-0.065,-0.220,-0.265,-0.220,-0.170
-0.079,-0.235,-0.156,0.158,0.039,-0.195,0.055,-0.063,-0.220,-0.265,-0.220,-0.170
-0.083,-0.235,-0.152,0.159,0.035,-0.194,0.055,-0.077,-0.220,-0.265,-0.223,-0.170
-0.071,-0.235,-0.164,0.153,0.047,-0.199,0.056,-0.072,-0.221,-0.265,-0.225,-0.169
-0.061,-0.235,-0.174,0.149,0.057,-0.205,0.053,-0.052,-0.218,-0.265,-0.225,-0.171
-0.080,-0.235,-0.155,0.158,0.038,-0.195,0.055,-0.035,-0.205,-0.265,-0.230,-0.180
-0.084,-0.227,-0.143,0.156,0.030,-0.184,0.091,0.021,-0.196,-0.263,-0.240,-0.191
-0.091,-0.221,-0.131,0.156,0.021,-0.176,0.120,0.067,-0.160,-0.279,-0.267,-0.211
-0.081,-0.201,-0.120,0.142,0.020,-0.161,0.156,0.157,-0.126,-0.265,-0.271,-0.238
-0.054,-0.167,-0.113,0.111,0.030,-0.140,0.199,0.309,-0.076,-0.221,-0.251,-0.240
-0.035,-0.140,-0.105,0.088,0.035,-0.122,0.215,0.455,0.035,-0.185,-0.235,-0.205
-0.019,-0.115,-0.096,0.068,0.038,-0.105,0.208,0.581,0.155,-0.112,-0.186,-0.179
0.005,-0.098,-0.103,0.046,0.055,-0.100,0.231,0.649,0.277,-0.018,-0.113,-0.128
0.083,-0.063,-0.146,-0.010,0.115,-0.104,0.216,0.623,0.418,0.110,-0.005,-0.046
0.179,0.004,-0.175,-0.091,0.177,-0.085,0.140,0.475,0.538,0.263,0.138,0.058
0.235,0.095,-0.140,-0.165,0.187,-0.022,0.035,0.190,0.590,0.430,0.310,0.195
0.319,0.209,-0.109,-0.264,0.214,0.050,-0.148,-0.229,0.624,0.651,0.534,0.385
0.463,0.365,-0.098,-0.413,0.280,0.133,-0.390,-0.723,0.641,0.920,0.814,0.618
0.572,0.482,-0.090,-0.527,0.331,0.196,-0.614,-1.086,0.682,1.197,1.085,0.843
0.642,0.547,-0.094,-0.594,0.368,0.226,-0.784,-1.259,0.760,1.460,1.333,1.045
0.735,0.630,-0.105,-0.682,0.420,0.262,-0.930,-1.400,0.805,1.725,1.590,1.245
0.767,0.735,-0.031,-0.751,0.399,0.351,-1.074,-1.619,0.750,2.013,1.832,1.436
0.748,0.890,0.141,-0.819,0.304,0.515,-1.214,-1.858,0.704,2.276,2.051,1.625
0.726,0.968,0.242,-0.847,0.241,0.605,-1.340,-2.053,0.589,2.355,2.137,1.665
0.702,0.860,0.159,-0.782,0.271,0.510,-1.380,-2.109,0.419,2.163,2.026,1.592
0.645,0.625,-0.020,-0.635,0.332,0.302,-1.305,-2.005,0.280,1.790,1.785,1.535
0.561,0.420,-0.141,-0.490,0.351,0.138,-1.247,-1.904,0.045,1.395,1.501,1.361
0.516,0.286,-0.229,-0.400,0.372,0.029,-1.157,-1.804,-0.207,0.952,1.185,1.167
0.429,0.168,-0.261,-0.298,0.345,-0.046,-1.044,-1.694,-0.454,0.510,0.871,0.979
0.340,0.066,-0.274,-0.202,0.307,-0.104,-0.922,-1.536,-0.656,0.106,0.578,0.779
0.320,0.015,-0.305,-0.167,0.312,-0.145,-0.780,-1.310,-0.760,-0.245,0.295,0.570
0.199,-0.040,-0.239,-0.079,0.219,-0.140,-0.632,-1.096,-0.791,-0.443,0.045,0.363
0.128,-0.058,-0.186,-0.035,0.157,-0.122,-0.486,-0.862,-0.696,-0.442,-0.045,0.222
0.096,-0.053,-0.150,-0.021,0.124,-0.101,-0.379,-0.688,-0.582,-0.377,-0.074,0.137
0.066,-0.057,-0.122,-0.004,0.095,-0.090,-0.306,-0.583,-0.512,-0.342,-0.119,0.076
0.060,-0.070,-0.130,0.005,0.095,-0.100,-0.230,-0.470,-0.440,-0.310,-0.135,0.025
0.039,-0.092,-0.131,0.027,0.085,-0.111,-0.169,-0.375,-0.380,-0.278,-0.136,-0.026
0.035,-0.095,-0.130,0.030,0.083,-0.112,-0.111,-0.271,-0.318,-0.247,-0.133,-0.047
0.028,-0.102,-0.130,0.037,0.079,-0.116,-0.065,-0.193,-0.251,-0.211,-0.141,-0.057
0.005,-0.125,-0.130,0.060,0.067,-0.128,-0.031,-0.141,-0.202,-0.188,-0.152,-0.074
-0.010,-0.140,-0.130,0.075,0.060,-0.135,0.000,-0.085,-0.190,-0.190,-0.155,-0.085
-0.020,-0.150,-0.130,0.085,0.055,-0.140,0.017,-0.056,-0.178,-0.189,-0.162,-0.092
-0.045,-0.175,-0.130,0.110,0.043,-0.152,0.031,-0.028,-0.166,-0.203,-0.178,-0.110
-0.040,-0.186,-0.146,0.114,0.053,-0.166,0.049,-0.007,-0.154,-0.210,-0.189,-0.126
-0.018,-0.179,-0.161,0.098,0.072,-0.170,0.063,0.002,-0.142,-0.204,-0.190,-0.131
-0.025,-0.180,-0.155,0.103,0.065,-0.167,0.075,0.010,-0.135,-0.205,-0.190,-0.135
-0.026,-0.181,-0.154,0.104,0.064,-0.167,0.092,0.018,-0.131,-0.205,-0.190,-0.136
-0.021,-0.177,-0.156,0.100,0.068,-0.166,0.100,0.029,-0.128,-0.205,-0.190,-0.133
-0.021,-0.174,-0.153,0.098,0.066,-0.164,0.100,0.039,-0.121,-0.205,-0.191,-0.141
-0.026,-0.175,-0.150,0.101,0.062,-0.162,0.101,0.047,-0.114,-0.204,-0.196,-0.150
-0.025,-0.175,-0.150,0.100,0.063,-0.162,0.105,0.055,-0.110,-0.200,-0.200,-0.145
-0.020,-0.171,-0.150,0.096,0.065,-0.161,0.109,0.062,-0.106,-0.200,-0.196,-0.145
-0.023,-0.169,-0.147,0.096,0.062,-0.158,0.113,0.075,-0.099,-0.200,-0.194,-0.145
-0.026,-0.171,-0.144,0.099,0.059,-0.157,0.117,0.081,-0.092,-0.200,-0.196,-0.145
-0.024,-0.169,-0.145,0.097,0.061,-0.157,0.120,0.080,-0.089,-0.200,-0.194,-0.145
-0.020,-0.165,-0.145,0.093,0.063,-0.155,0.120,0.080,-0.085,-0.200,-0.190,-0.145
-0.024,-0.165,-0.141,0.094,0.059,-0.152,0.119,0.083,-0.081,-0.196,-0.190,-0.145
-0.026,-0.166,-0.139,0.096,0.057,-0.152,0.126,0.094,-0.077,-0.192,-0.191,-0.146
-0.023,-0.163,-0.141,0.093,0.059,-0.152,0.133,0.103,-0.073,-0.188,-0.188,-0.143
-0.020,-0.160,-0.139,0.090,0.059,-0.149,0.135,0.106,-0.068,-0.184,-0.185,-0.140
-0.025,-0.160,-0.135,0.093,0.055,-0.147,0.135,0.110,-0.060,-0.180,-0.185,-0.140
-0.026,-0.160,-0.135,0.094,0.054,-0.147,0.139,0.113,-0.056,-0.176,-0.185,-0.140
-0.021,-0.157,-0.136,0.090,0.057,-0.146,0.140,0.122,-0.053,-0.172,-0.186,-0.140
-0.021,-0.154,-0.133,0.088,0.056,-0.144,0.140,0.124,-0.046,-0.166,-0.182,-0.140
-0.026,-0.155,-0.130,0.091,0.052,-0.142,0.140,0.119,-0.039,-0.158,-0.173,-0.140
-0.025,-0.155,-0.130,0.090,0.053,-0.142,0.140,0.120,-0.035,-0.150,-0.170,-0.140
-0.020,-0.151,-0.130,0.086,0.055,-0.141,0.140,0.137,-0.031,-0.142,-0.166,-0.140
-0.023,-0.150,-0.127,0.087,0.052,-0.138,0.140,0.144,-0.024,-0.134,-0.159,-0.137
-0.025,-0.150,-0.125,0.088,0.050,-0.137,0.140,0.149,-0.016,-0.126,-0.152,-0.133
-0.025,-0.150,-0.125,0.088,0.050,-0.137,0.140,0.156,-0.008,-0.118,-0.149,-0.129
-0.025,-0.150,-0.125,0.088,0.050,-0.137,0.140,0.160,0.000,-0.110,-0.145,-0.125
-0.016,-0.142,-0.126,0.080,0.055,-0.133,0.140,0.173,0.008,-0.102,-0.137,-0.121
-0.017,-0.136,-0.120,0.077,0.052,-0.127,0.140,0.174,0.017,-0.097,-0.132,-0.116
-0.006,-0.134,-0.127,0.070,0.061,-0.130,0.140,0.168,0.022,-0.094,-0.128,-0.115
0.013,-0.128,-0.141,0.058,0.077,-0.135,0.140,0.172,0.027,-0.088,-0.124,-0.114
0.015,-0.120,-0.135,0.053,0.075,-0.127,0.140,0.185,0.035,-0.080,-0.120,-0.110
0.015,-0.116,-0.131,0.050,0.073,-0.123,0.140,0.196,0.046,-0.076,-0.116,-0.106
0.015,-0.112,-0.127,0.049,0.071,-0.119,0.138,0.216,0.065,-0.073,-0.113,-0.102
0.017,-0.108,-0.125,0.046,0.071,-0.116,0.146,0.229,0.082,-0.066,-0.106,-0.098
0.020,-0.104,-0.124,0.042,0.073,-0.114,0.155,0.231,0.093,-0.058,-0.099,-0.094
0.020,-0.100,-0.120,0.040,0.070,-0.110,0.150,0.235,0.105,-0.050,-0.095,-0.090
0.020,-0.096,-0.116,0.039,0.068,-0.106,0.150,0.239,0.110,-0.042,-0.091,-0.086
0.023,-0.092,-0.115,0.035,0.069,-0.103,0.147,0.245,0.111,-0.034,-0.087,-0.079
0.026,-0.088,-0.114,0.031,0.070,-0.100,0.144,0.256,0.123,-0.026,-0.083,-0.072
0.024,-0.085,-0.109,0.031,0.067,-0.096,0.145,0.267,0.145,-0.018,-0.079,-0.069
0.020,-0.085,-0.105,0.033,0.063,-0.095,0.145,0.275,0.160,-0.010,-0.075,-0.065
0.024,-0.081,-0.105,0.029,0.065,-0.093,0.141,0.290,0.170,0.005,-0.063,-0.057
0.025,-0.077,-0.102,0.026,0.064,-0.089,0.139,0.311,0.198,0.025,-0.053,-0.051
0.026,-0.073,-0.099,0.023,0.063,-0.086,0.141,0.324,0.214,0.028,-0.046,-0.049
0.031,-0.069,-0.100,0.019,0.066,-0.085,0.139,0.333,0.227,0.036,-0.038,-0.042
0.035,-0.065,-0.100,0.015,0.068,-0.082,0.135,0.355,0.260,0.070,-0.030,-0.030
0.035,-0.061,-0.096,0.013,0.065,-0.078,0.135,0.378,0.265,0.076,-0.022,-0.022
0.037,-0.058,-0.094,0.011,0.066,-0.076,0.136,0.379,0.272,0.074,-0.015,-0.014
0.046,-0.050,-0.095,0.002,0.071,-0.072,0.133,0.390,0.289,0.079,-0.003,-0.006
0.057,-0.037,-0.094,-0.009,0.076,-0.065,0.130,0.414,0.311,0.095,0.015,0.002
0.060,-0.030,-0.090,-0.015,0.075,-0.060,0.130,0.425,0.335,0.115,0.030,0.010
0.063,-0.022,-0.086,-0.020,0.075,-0.054,0.126,0.448,0.354,0.126,0.032,0.016
0.071,-0.011,-0.082,-0.030,0.077,-0.046,0.124,0.472,0.385,0.151,0.057,0.038
0.078,0.000,-0.078,-0.039,0.078,-0.039,0.126,0.484,0.407,0.173,0.072,0.042
0.080,0.007,-0.074,-0.043,0.076,-0.034,0.124,0.494,0.420,0.192,0.073,0.037
0.085,0.015,-0.070,-0.050,0.077,-0.027,0.120,0.520,0.450,0.225,0.095,0.060
0.098,0.028,-0.070,-0.063,0.084,-0.021,0.120,0.544,0.475,0.242,0.112,0.073
0.100,0.033,-0.068,-0.066,0.084,-0.017,0.121,0.565,0.493,0.253,0.125,0.081
0.103,0.040,-0.062,-0.071,0.082,-0.011,0.118,0.570,0.505,0.269,0.134,0.087
0.112,0.052,-0.060,-0.082,0.086,-0.004,0.114,0.572,0.520,0.282,0.143,0.092
0.115,0.055,-0.060,-0.085,0.087,-0.002,0.115,0.590,0.540,0.285,0.155,0.100
0.112,0.056,-0.056,-0.084,0.084,0.000,0.116,0.611,0.556,0.299,0.169,0.111
0.136,0.081,-0.055,-0.108,0.095,0.013,0.110,0.625,0.577,0.327,0.198,0.132
0.156,0.102,-0.054,-0.129,0.104,0.024,0.100,0.634,0.602,0.350,0.215,0.140
0.155,0.106,-0.049,-0.130,0.101,0.028,0.094,0.643,0.626,0.372,0.224,0.143
0.160,0.115,-0.045,-0.137,0.102,0.035,0.090,0.660,0.645,0.400,0.250,0.165
0.177,0.131,-0.045,-0.153,0.110,0.043,0.082,0.682,0.657,0.416,0.268,0.178
0.185,0.143,-0.042,-0.163,0.113,0.050,0.074,0.687,0.670,0.434,0.273,0.186
0.185,0.145,-0.040,-0.165,0.112,0.052,0.067,0.684,0.675,0.440,0.278,0.193
0.184,0.145,-0.039,-0.165,0.111,0.053,0.066,0.685,0.676,0.443,0.287,0.196
0.180,0.145,-0.035,-0.162,0.107,0.055,0.070,0.685,0.690,0.460,0.295,0.200
0.177,0.143,-0.035,-0.159,0.106,0.054,0.070,0.683,0.706,0.471,0.310,0.208
0.198,0.163,-0.035,-0.180,0.116,0.064,0.070,0.698,0.720,0.494,0.332,0.216
0.216,0.180,-0.035,-0.197,0.125,0.072,0.070,0.704,0.729,0.510,0.342,0.224
0.214,0.179,-0.034,-0.196,0.124,0.072,0.070,0.693,0.738,0.519,0.349,0.232
0.210,0.180,-0.030,-0.195,0.120,0.075,0.070,0.690,0.745,0.540,0.370,0.240
0.214,0.185,-0.030,-0.200,0.122,0.077,0.070,0.682,0.737,0.554,0.363,0.244
0.214,0.184,-0.030,-0.199,0.121,0.076,0.070,0.677,0.732,0.550,0.356,0.249
0.221,0.191,-0.030,-0.206,0.125,0.080,0.070,0.671,0.726,0.541,0.353,0.247
0.230,0.200,-0.030,-0.215,0.130,0.085,0.070,0.665,0.720,0.533,0.349,0.238
0.220,0.190,-0.030,-0.205,0.125,0.080,0.070,0.660,0.715,0.525,0.345,0.230
0.208,0.182,-0.026,-0.194,0.117,0.078,0.074,0.629,0.684,0.523,0.341,0.226
0.199,0.174,-0.025,-0.186,0.112,0.074,0.075,0.596,0.651,0.500,0.338,0.220
0.191,0.166,-0.025,-0.178,0.108,0.070,0.075,0.563,0.616,0.473,0.328,0.210
0.183,0.158,-0.025,-0.170,0.104,0.066,0.075,0.533,0.576,0.447,0.312,0.205
0.175,0.150,-0.025,-0.162,0.100,0.062,0.075,0.505,0.535,0.410,0.295,0.200
0.173,0.148,-0.025,-0.160,0.099,0.061,0.075,0.461,0.476,0.375,0.256,0.173
0.152,0.128,-0.024,-0.139,0.087,0.052,0.075,0.420,0.417,0.330,0.217,0.146
0.135,0.104,-0.030,-0.119,0.082,0.037,0.075,0.379,0.364,0.281,0.182,0.123
0.127,0.085,-0.042,-0.106,0.084,0.021,0.075,0.334,0.312,0.233,0.146,0.100
0.105,0.060,-0.045,-0.082,0.075,0.007,0.075,0.290,0.260,0.185,0.110,0.080
0.083,0.035,-0.048,-0.059,0.066,-0.006,0.075,0.253,0.211,0.141,0.082,0.056
0.077,0.017,-0.060,-0.046,0.068,-0.021,0.078,0.221,0.167,0.099,0.054,0.035
0.071,0.004,-0.067,-0.037,0.069,-0.031,0.081,0.187,0.123,0.062,0.026,0.015
0.056,-0.008,-0.065,-0.023,0.061,-0.036,0.088,0.152,0.080,0.026,-0.001,-0.005
0.045,-0.020,-0.065,-0.012,0.055,-0.042,0.105,0.120,0.040,-0.010,-0.025,-0.020
0.037,-0.029,-0.065,-0.003,0.051,-0.047,0.110,0.088,-0.003,-0.040,-0.052,-0.031
-0.003,-0.066,-0.063,0.035,0.031,-0.065,0.110,0.055,-0.048,-0.085,-0.089,-0.054
-0.021,-0.092,-0.071,0.057,0.025,-0.081,0.110,0.027,-0.074,-0.115,-0.114,-0.070
-0.008,-0.090,-0.081,0.049,0.037,-0.086,0.111,0.005,-0.091,-0.131,-0.130,-0.078
-0.015,-0.095,-0.080,0.055,0.033,-0.087,0.115,-0.015,-0.120,-0.165,-0.155,-0.095
-0.025,-0.103,-0.078,0.064,0.027,-0.090,0.115,-0.031,-0.141,-0.187,-0.169,-0.108
-0.018,-0.108,-0.090,0.063,0.036,-0.098,0.115,-0.047,-0.154,-0.195,-0.172,-0.115
-0.019,-0.114,-0.095,0.066,0.038,-0.104,0.114,-0.064,-0.167,-0.208,-0.181,-0.126
-0.033,-0.122,-0.089,0.078,0.028,-0.105,0.117,-0.077,-0.176,-0.222,-0.192,-0.136
-0.040,-0.125,-0.085,0.083,0.023,-0.105,0.130,-0.080,-0.180,-0.225,-0.195,-0.135
-0.042,-0.124,-0.082,0.083,0.020,-0.102,0.135,-0.079,-0.192,-0.227,-0.197,-0.133
-0.061,-0.136,-0.076,0.098,0.008,-0.105,0.135,-0.086,-0.203,-0.244,-0.215,-0.147
-0.057,-0.151,-0.094,0.104,0.019,-0.122,0.135,-0.092,-0.219,-0.265,-0.229,-0.157
-0.039,-0.156,-0.117,0.098,0.040,-0.137,0.135,-0.096,-0.231,-0.277,-0.230,-0.154
-0.050,-0.160,-0.110,0.105,0.030,-0.135,0.135,-0.100,-0.225,-0.280,-0.230,-0.155
-0.055,-0.164,-0.110,0.109,0.028,-0.137,0.135,-0.096,-0.224,-0.280,-0.230,-0.155
-0.058,-0.165,-0.107,0.112,0.025,-0.136,0.135,-0.094,-0.226,-0.279,-0.230,-0.153
-0.061,-0.165,-0.104,0.113,0.022,-0.135,0.135,-0.096,-0.223,-0.282,-0.230,-0.161
-0.060,-0.165,-0.105,0.113,0.023,-0.135,0.136,-0.094,-0.220,-0.285,-0.230,-0.170
-0.060,-0.165,-0.105,0.113,0.023,-0.135,0.140,-0.090,-0.220,-0.285,-0.230,-0.165
-0.064,-0.165,-0.101,0.114,0.019,-0.132,0.140,-0.090,-0.220,-0.285,-0.228,-0.165
-0.066,-0.166,-0.099,0.116,0.017,-0.132,0.140,-0.091,-0.217,-0.282,-0.246,-0.165
-0.061,-0.162,-0.101,0.112,0.020,-0.131,0.140,-0.088,-0.215,-0.278,-0.255,-0.165
-0.054,-0.153,-0.099,0.103,0.023,-0.126,0.140,-0.085,-0.215,-0.274,-0.242,-0.165
-0.050,-0.145,-0.095,0.098,0.023,-0.120,0.140,-0.085,-0.215,-0.270,-0.235,-0.165
-0.042,-0.137,-0.095,0.090,0.027,-0.116,0.140,-0.085,-0.216,-0.266,-0.231,-0.166
-0.034,-0.129,-0.096,0.082,0.032,-0.112,0.140,-0.086,-0.207,-0.261,-0.224,-0.160
-0.027,-0.120,-0.093,0.074,0.033,-0.107,0.142,-0.080,-0.195,-0.260,-0.216,-0.150
-0.025,-0.114,-0.089,0.069,0.033,-0.101,0.146,-0.067,-0.188,-0.259,-0.209,-0.144
-0.020,-0.110,-0.090,0.065,0.035,-0.100,0.150,-0.060,-0.180,-0.250,-0.205,-0.140
-0.007,-0.098,-0.091,0.053,0.042,-0.094,0.154,-0.052,-0.172,-0.246,-0.201,-0.132
-0.004,-0.089,-0.085,0.047,0.041,-0.086,0.159,-0.044,-0.164,-0.242,-0.197,-0.124
-0.003,-0.079,-0.076,0.041,0.036,-0.077,0.159,-0.036,-0.156,-0.238,-0.193,-0.117
0.000,-0.068,-0.068,0.034,0.034,-0.068,0.154,-0.028,-0.148,-0.234,-0.190,-0.116
0.000,-0.060,-0.060,0.030,0.030,-0.060,0.155,-0.020,-0.145,-0.230,-0.190,-0.120
0.004,-0.048,-0.052,0.022,0.028,-0.050,0.155,-0.016,-0.145,-0.226,-0.186,-0.120
0.006,-0.038,-0.045,0.016,0.026,-0.041,0.156,-0.012,-0.142,-0.222,-0.181,-0.120
0.002,-0.032,-0.034,0.015,0.018,-0.033,0.153,-0.008,-0.140,-0.218,-0.180,-0.120
0.001,-0.030,-0.031,0.014,0.016,-0.031,0.150,-0.005,-0.139,-0.214,-0.179,-0.120
0.010,-0.030,-0.040,0.010,0.025,-0.035,0.150,-0.005,-0.135,-0.210,-0.175,-0.120
0.006,-0.030,-0.036,0.012,0.021,-0.033,0.150,-0.001,-0.135,-0.206,-0.171,-0.120
0.005,-0.030,-0.035,0.013,0.020,-0.032,0.150,0.004,-0.136,-0.201,-0.170,-0.120
0.003,-0.030,-0.033,0.014,0.018,-0.031,0.150,0.005,-0.133,-0.200,-0.169,-0.120
0.000,-0.030,-0.030,0.015,0.015,-0.030,0.149,0.006,-0.130,-0.199,-0.164,-0.120
0.000,-0.030,-0.030,0.015,0.015,-0.030,0.145,0.010,-0.130,-0.195,-0.160,-0.120
0.000,-0.026,-0.026,0.013,0.013,-0.026,0.145,0.014,-0.126,-0.195,-0.160,-0.120
0.001,-0.025,-0.025,0.013,0.013,-0.025,0.145,0.016,-0.125,-0.196,-0.158,-0.120
-0.002,-0.025,-0.023,0.014,0.011,-0.024,0.145,0.012,-0.123,-0.193,-0.153,-0.120
-0.005,-0.025,-0.020,0.015,0.008,-0.022,0.146,0.003,-0.120,-0.190,-0.150,-0.120
-0.005,-0.025,-0.020,0.015,0.008,-0.022,0.145,-0.005,-0.120,-0.190,-0.150,-0.120
-0.009,-0.025,-0.016,0.017,0.004,-0.021,0.133,-0.014,-0.118,-0.189,-0.153,-0.120
-0.012,-0.024,-0.012,0.019,0.001,-0.018,0.123,-0.018,-0.133,-0.201,-0.167,-0.120
-0.004,-0.028,-0.024,0.017,0.011,-0.026,0.117,-0.040,-0.156,-0.216,-0.180,-0.120
0.015,-0.037,-0.052,0.011,0.034,-0.044,0.107,-0.070,-0.166,-0.221,-0.186,-0.120
0.025,-0.045,-0.070,0.010,0.048,-0.057,0.095,-0.080,-0.165,-0.225,-0.190,-0.120
0.014,-0.059,-0.073,0.023,0.043,-0.065,0.087,-0.093,-0.177,-0.229,-0.190,-0.120
0.035,-0.056,-0.090,0.011,0.063,-0.073,0.078,-0.095,-0.185,-0.230,-0.190,-0.120
0.041,-0.061,-0.103,0.010,0.073,-0.082,0.076,-0.100,-0.185,-0.230,-0.190,-0.120
0.022,-0.077,-0.099,0.028,0.061,-0.088,0.081,-0.111,-0.186,-0.230,-0.190,-0.120
0.020,-0.080,-0.100,0.030,0.060,-0.090,0.080,-0.110,-0.190,-0.230,-0.190,-0.120
0.015,-0.085,-0.100,0.035,0.058,-0.092,0.080,-0.110,-0.194,-0.237,-0.197,-0.119
0.017,-0.083,-0.100,0.033,0.059,-0.091,0.083,-0.110,-0.199,-0.250,-0.209,-0.128
0.006,-0.094,-0.100,0.044,0.053,-0.097,0.086,-0.110,-0.200,-0.259,-0.221,-0.141
-0.014,-0.114,-0.100,0.064,0.043,-0.107,0.084,-0.110,-0.201,-0.268,-0.233,-0.153
-0.025,-0.125,-0.100,0.075,0.038,-0.112,0.085,-0.110,-0.205,-0.280,-0.240,-0.160
-0.042,-0.142,-0.100,0.092,0.030,-0.120,0.098,-0.110,-0.209,-0.276,-0.236,-0.156
-0.050,-0.150,-0.100,0.100,0.025,-0.125,0.098,-0.110,-0.210,-0.274,-0.235,-0.154
-0.050,-0.150,-0.100,0.100,0.025,-0.125,0.094,-0.110,-0.210,-0.275,-0.233,-0.155
-0.050,-0.150,-0.100,0.100,0.025,-0.125,0.094,-0.110,-0.209,-0.275,-0.229,-0.155
-0.050,-0.150,-0.100,0.100,0.025,-0.125,0.090,-0.110,-0.210,-0.275,-0.230,-0.155
-0.048,-0.148,-0.100,0.098,0.026,-0.124,0.090,-0.110,-0.222,-0.283,-0.237,-0.166
-0.062,-0.162,-0.100,0.112,0.019,-0.131,0.091,-0.112,-0.226,-0.288,-0.250,-0.181
-0.074,-0.174,-0.100,0.124,0.013,-0.137,0.088,-0.118,-0.224,-0.292,-0.258,-0.184
-0.075,-0.175,-0.100,0.125,0.013,-0.137,0.085,-0.120,-0.226,-0.296,-0.261,-0.179
-0.075,-0.175,-0.100,0.125,0.013,-0.137,0.085,-0.120,-0.230,-0.300,-0.265,-0.180
-0.071,-0.175,-0.105,0.123,0.018,-0.140,0.085,-0.132,-0.230,-0.313,-0.261,-0.180
-0.072,-0.175,-0.103,0.124,0.016,-0.139,0.082,-0.139,-0.230,-0.313,-0.259,-0.180
-0.077,-0.175,-0.098,0.126,0.011,-0.136,0.079,-0.140,-0.230,-0.309,-0.260,-0.180
-0.072,-0.174,-0.102,0.123,0.016,-0.138,0.080,-0.140,-0.230,-0.310,-0.260,-0.180
-0.060,-0.175,-0.115,0.118,0.028,-0.145,0.080,-0.140,-0.230,-0.310,-0.260,-0.180
-0.068,-0.188,-0.120,0.128,0.026,-0.154,0.076,-0.140,-0.230,-0.310,-0.260,-0.180
-0.068,-0.188,-0.120,0.128,0.026,-0.154,0.075,-0.140,-0.230,-0.310,-0.260,-0.180
-0.065,-0.184,-0.120,0.125,0.028,-0.152,0.073,-0.140,-0.230,-0.310,-0.260,-0.180
-0.064,-0.184,-0.120,0.124,0.028,-0.152,0.069,-0.140,-0.230,-0.310,-0.260,-0.180
-0.060,-0.180,-0.120,0.120,0.030,-0.150,0.070,-0.140,-0.230,-0.310,-0.260,-0.180
-0.063,-0.180,-0.116,0.122,0.026,-0.147,0.070,-0.140,-0.230,-0.310,-0.260,-0.180
-0.069,-0.181,-0.112,0.125,0.022,-0.146,0.067,-0.140,-0.230,-0.310,-0.260,-0.180
-0.070,-0.178,-0.108,0.124,0.019,-0.143,0.064,-0.140,-0.229,-0.310,-0.260,-0.180
-0.071,-0.175,-0.104,0.123,0.017,-0.139,0.065,-0.140,-0.224,-0.310,-0.260,-0.180
-0.075,-0.175,-0.100,0.125,0.013,-0.137,0.065,-0.140,-0.225,-0.310,-0.260,-0.180
-0.075,-0.171,-0.096,0.123,0.011,-0.133,0.061,-0.140,-0.242,-0.306,-0.260,-0.180
-0.076,-0.169,-0.093,0.123,0.008,-0.131,0.059,-0.140,-0.244,-0.305,-0.260,-0.180
-0.070,-0.171,-0.100,0.121,0.015,-0.135,0.061,-0.140,-0.239,-0.305,-0.261,-0.181
-0.057,-0.169,-0.112,0.113,0.028,-0.141,0.059,-0.140,-0.240,-0.305,-0.266,-0.179
-0.050,-0.165,-0.115,0.108,0.033,-0.140,0.055,-0.140,-0.240,-0.305,-0.270,-0.180
-0.048,-0.165,-0.117,0.107,0.035,-0.141,0.055,-0.140,-0.240,-0.305,-0.266,-0.197
-0.028,-0.162,-0.134,0.095,0.053,-0.148,0.052,-0.139,-0.240,-0.305,-0.262,-0.196
-0.022,-0.159,-0.137,0.091,0.057,-0.148,0.049,-0.142,-0.241,-0.305,-0.273,-0.187
-0.038,-0.160,-0.122,0.100,0.042,-0.141,0.051,-0.136,-0.238,-0.305,-0.286,-0.185
-0.045,-0.160,-0.115,0.103,0.035,-0.137,0.060,-0.110,-0.225,-0.305,-0.275,-0.180
-0.053,-0.156,-0.103,0.104,0.026,-0.129,0.077,-0.089,-0.214,-0.305,-0.264,-0.173
-0.061,-0.154,-0.093,0.107,0.017,-0.123,0.084,-0.036,-0.193,-0.304,-0.282,-0.195
-0.069,-0.157,-0.088,0.113,0.010,-0.122,0.105,0.020,-0.169,-0.308,-0.304,-0.218
-0.068,-0.152,-0.084,0.111,0.008,-0.118,0.145,0.097,-0.141,-0.300,-0.320,-0.237
-0.055,-0.135,-0.080,0.095,0.013,-0.107,0.180,0.235,-0.080,-0.270,-0.330,-0.260
-0.044,-0.120,-0.076,0.082,0.017,-0.098,0.203,0.355,0.023,-0.244,-0.287,-0.237
-0.023,-0.094,-0.072,0.059,0.025,-0.083,0.203,0.445,0.126,-0.193,-0.248,-0.219
0.002,-0.068,-0.070,0.033,0.036,-0.069,0.200,0.525,0.257,-0.094,-0.186,-0.174
0.045,-0.042,-0.088,-0.001,0.066,-0.065,0.199,0.559,0.412,0.048,-0.065,-0.079
0.125,0.015,-0.110,-0.070,0.117,-0.047,0.170,0.475,0.525,0.215,0.095,0.040
0.202,0.130,-0.073,-0.166,0.138,0.028,0.066,0.241,0.577,0.403,0.274,0.184
0.274,0.245,-0.029,-0.259,0.152,0.108,-0.132,-0.163,0.604,0.631,0.498,0.364
0.395,0.389,-0.006,-0.392,0.201,0.191,-0.365,-0.633,0.608,0.912,0.773,0.588
0.534,0.535,0.001,-0.534,0.266,0.268,-0.574,-0.997,0.617,1.213,1.068,0.829
0.600,0.610,0.010,-0.605,0.295,0.310,-0.745,-1.195,0.645,1.485,1.335,1.040
0.628,0.666,0.038,-0.647,0.295,0.352,-0.886,-1.363,0.621,1.739,1.564,1.219
0.691,0.802,0.111,-0.747,0.290,0.456,-1.022,-1.573,0.609,2.051,1.827,1.415
0.680,0.972,0.291,-0.826,0.194,0.631,-1.155,-1.837,0.523,2.344,2.059,1.604
0.600,1.058,0.458,-0.829,0.071,0.758,-1.272,-2.083,0.318,2.459,2.160,1.672
0.575,0.985,0.410,-0.780,0.082,0.697,-1.330,-2.190,0.105,2.310,2.090,1.595
0.556,0.774,0.217,-0.665,0.169,0.495,-1.281,-2.118,-0.038,1.958,1.865,1.540
0.490,0.558,0.068,-0.524,0.211,0.312,-1.229,-2.020,-0.251,1.542,1.570,1.386
0.403,0.396,-0.007,-0.400,0.205,0.194,-1.154,-1.923,-0.467,1.099,1.260,1.195
0.344,0.279,-0.065,-0.312,0.204,0.106,-1.034,-1.785,-0.614,0.660,0.964,1.025
0.300,0.175,-0.125,-0.237,0.212,0.025,-0.905,-1.600,-0.740,0.235,0.670,0.820
0.210,0.059,-0.151,-0.135,0.181,-0.046,-0.769,-1.394,-0.846,-0.227,0.322,0.587
0.153,0.023,-0.130,-0.088,0.141,-0.053,-0.633,-1.170,-0.858,-0.487,0.042,0.375
0.112,0.021,-0.090,-0.067,0.101,-0.034,-0.497,-0.944,-0.758,-0.508,-0.094,0.223
0.074,0.007,-0.067,-0.041,0.071,-0.030,-0.379,-0.760,-0.627,-0.439,-0.131,0.132
0.065,0.000,-0.065,-0.032,0.065,-0.032,-0.295,-0.630,-0.545,-0.395,-0.150,0.070
0.049,-0.012,-0.061,-0.019,0.055,-0.036,-0.234,-0.510,-0.472,-0.359,-0.170,0.008
0.035,-0.025,-0.060,-0.005,0.048,-0.042,-0.177,-0.424,-0.409,-0.321,-0.189,-0.032
0.025,-0.033,-0.058,0.005,0.041,-0.046,-0.127,-0.340,-0.349,-0.296,-0.198,-0.060
0.011,-0.044,-0.054,0.017,0.033,-0.048,-0.084,-0.259,-0.283,-0.288,-0.200,-0.085
-0.015,-0.065,-0.050,0.040,0.018,-0.057,-0.045,-0.210,-0.225,-0.280,-0.200,-0.095
-0.045,-0.090,-0.045,0.067,0.001,-0.067,-0.016,-0.161,-0.207,-0.272,-0.200,-0.093
-0.024,-0.108,-0.085,0.066,0.031,-0.096,0.009,-0.127,-0.194,-0.261,-0.200,-0.109
-0.011,-0.120,-0.109,0.066,0.050,-0.114,0.028,-0.101,-0.176,-0.251,-0.200,-0.128
-0.028,-0.126,-0.098,0.077,0.036,-0.112,0.045,-0.075,-0.162,-0.243,-0.200,-0.137
-0.030,-0.130,-0.100,0.080,0.035,-0.115,0.065,-0.060,-0.150,-0.235,-0.200,-0.140
-0.034,-0.135,-0.100,0.084,0.033,-0.117,0.062,-0.048,-0.142,-0.230,-0.200,-0.140
-0.033,-0.133,-0.100,0.083,0.034,-0.116,0.055,-0.036,-0.134,-0.230,-0.200,-0.143
-0.027,-0.128,-0.100,0.077,0.037,-0.114,0.059,-0.024,-0.128,-0.228,-0.200,-0.145
-0.034,-0.134,-0.099,0.084,0.032,-0.116,0.075,-0.013,-0.123,-0.224,-0.200,-0.146
-0.055,-0.150,-0.095,0.103,0.020,-0.122,0.095,-0.005,-0.115,-0.225,-0.200,-0.150
-0.052,-0.147,-0.095,0.100,0.022,-0.121,0.100,0.003,-0.106,-0.226,-0.207,-0.149
-0.049,-0.144,-0.095,0.097,0.024,-0.120,0.099,0.011,-0.102,-0.222,-0.217,-0.160
-0.051,-0.146,-0.095,0.099,0.023,-0.120,0.104,0.019,-0.096,-0.220,-0.219,-0.165
-0.049,-0.144,-0.095,0.097,0.023,-0.119,0.119,0.027,-0.089,-0.219,-0.214,-0.159
-0.045,-0.140,-0.095,0.093,0.025,-0.117,0.130,0.035,-0.085,-0.215,-0.210,-0.160
-0.044,-0.140,-0.095,0.093,0.025,-0.117,0.126,0.039,-0.081,-0.215,-0.206,-0.156
-0.048,-0.140,-0.092,0.094,0.022,-0.116,0.124,0.041,-0.077,-0.216,-0.205,-0.154
-0.051,-0.140,-0.089,0.096,0.019,-0.115,0.125,0.039,-0.073,-0.213,-0.204,-0.156
-0.049,-0.139,-0.090,0.094,0.021,-0.115,0.125,0.043,-0.069,-0.210,-0.199,-0.154
-0.045,-0.135,-0.090,0.090,0.023,-0.112,0.125,0.055,-0.065,-0.210,-0.195,-0.150
-0.045,-0.135,-0.090,0.090,0.023,-0.112,0.125,0.055,-0.061,-0.206,-0.195,-0.150
-0.045,-0.136,-0.091,0.090,0.023,-0.113,0.125,0.055,-0.057,-0.205,-0.193,-0.147
-0.045,-0.133,-0.088,0.089,0.022,-0.110,0.125,0.053,-0.053,-0.203,-0.187,-0.144
-0.045,-0.130,-0.085,0.088,0.020,-0.107,0.124,0.059,-0.049,-0.200,-0.185,-0.145
-0.045,-0.130,-0.085,0.088,0.020,-0.107,0.120,0.080,-0.045,-0.200,-0.185,-0.145
-0.045,-0.130,-0.085,0.088,0.020,-0.107,0.120,0.081,-0.040,-0.192,-0.177,-0.141
-0.046,-0.131,-0.085,0.089,0.020,-0.107,0.120,0.079,-0.041,-0.186,-0.171,-0.140
-0.043,-0.128,-0.085,0.086,0.021,-0.106,0.120,0.082,-0.035,-0.184,-0.168,-0.138
-0.040,-0.125,-0.085,0.083,0.023,-0.105,0.120,0.094,-0.022,-0.178,-0.164,-0.134
-0.040,-0.125,-0.085,0.083,0.023,-0.105,0.120,0.110,-0.015,-0.170,-0.160,-0.135
-0.040,-0.121,-0.081,0.080,0.021,-0.101,0.120,0.107,-0.007,-0.166,-0.156,-0.135
-0.041,-0.120,-0.080,0.080,0.019,-0.100,0.121,0.100,0.001,-0.163,-0.153,-0.132
-0.038,-0.118,-0.080,0.078,0.021,-0.099,0.118,0.104,0.009,-0.154,-0.146,-0.129
-0.035,-0.115,-0.080,0.075,0.023,-0.097,0.115,0.119,0.017,-0.142,-0.139,-0.130
-0.035,-0.115,-0.080,0.075,0.023,-0.097,0.115,0.135,0.025,-0.135,-0.135,-0.130
-0.023,-0.103,-0.080,0.063,0.028,-0.092,0.115,0.144,0.037,-0.127,-0.131,-0.126
-0.013,-0.093,-0.080,0.053,0.033,-0.087,0.115,0.147,0.045,-0.119,-0.124,-0.122
-0.007,-0.087,-0.080,0.047,0.037,-0.083,0.115,0.155,0.059,-0.111,-0.117,-0.118
0.003,-0.077,-0.080,0.037,0.042,-0.078,0.115,0.169,0.080,-0.103,-0.114,-0.114
0.015,-0.065,-0.080,0.025,0.048,-0.072,0.115,0.180,0.090,-0.095,-0.110,-0.110
0.022,-0.057,-0.080,0.018,0.052,-0.068,0.115,0.184,0.092,-0.083,-0.098,-0.105
0.035,-0.046,-0.081,0.005,0.059,-0.063,0.116,0.189,0.111,-0.071,-0.088,-0.106
0.024,-0.052,-0.077,0.014,0.051,-0.064,0.113,0.190,0.121,-0.059,-0.081,-0.102
0.003,-0.066,-0.068,0.032,0.036,-0.067,0.110,0.200,0.123,-0.047,-0.073,-0.093
0.010,-0.055,-0.065,0.023,0.038,-0.060,0.110,0.225,0.145,-0.035,-0.065,-0.085
0.015,-0.046,-0.061,0.016,0.038,-0.053,0.106,0.233,0.157,-0.023,-0.057,-0.077
0.015,-0.042,-0.057,0.014,0.036,-0.049,0.104,0.244,0.172,-0.011,-0.049,-0.069
0.016,-0.037,-0.053,0.010,0.035,-0.045,0.106,0.254,0.186,0.001,-0.039,-0.061
0.021,-0.028,-0.049,0.003,0.035,-0.038,0.104,0.263,0.199,0.013,-0.027,-0.053
0.025,-0.020,-0.045,-0.002,0.035,-0.032,0.100,0.280,0.220,0.025,-0.015,-0.045
0.024,-0.016,-0.041,-0.004,0.033,-0.028,0.100,0.297,0.244,0.031,-0.003,-0.037
0.031,-0.009,-0.040,-0.011,0.036,-0.024,0.101,0.305,0.267,0.055,0.006,-0.028
0.037,-0.001,-0.038,-0.018,0.038,-0.019,0.098,0.319,0.279,0.066,0.016,-0.023
0.042,0.007,-0.035,-0.024,0.038,-0.014,0.095,0.339,0.289,0.069,0.027,-0.019
0.050,0.015,-0.035,-0.032,0.042,-0.010,0.095,0.350,0.310,0.090,0.035,-0.010
0.054,0.023,-0.031,-0.038,0.042,-0.003,0.096,0.371,0.321,0.093,0.043,-0.001
0.061,0.031,-0.030,-0.046,0.045,0.000,0.092,0.383,0.345,0.113,0.050,0.002
0.067,0.039,-0.028,-0.053,0.047,0.005,0.090,0.402,0.372,0.132,0.063,0.010
0.071,0.047,-0.025,-0.058,0.048,0.011,0.089,0.433,0.398,0.154,0.086,0.023
0.075,0.050,-0.025,-0.062,0.050,0.012,0.085,0.455,0.430,0.190,0.105,0.035
0.073,0.052,-0.021,-0.062,0.046,0.015,0.085,0.459,0.437,0.189,0.104,0.047
0.092,0.072,-0.020,-0.082,0.056,0.026,0.086,0.472,0.459,0.208,0.118,0.059
0.097,0.079,-0.018,-0.088,0.058,0.031,0.083,0.499,0.487,0.237,0.140,0.070
0.091,0.077,-0.015,-0.084,0.053,0.031,0.080,0.518,0.504,0.254,0.153,0.076
0.110,0.095,-0.015,-0.102,0.062,0.040,0.080,0.525,0.520,0.270,0.165,0.085
0.119,0.108,-0.011,-0.113,0.065,0.049,0.080,0.538,0.533,0.287,0.182,0.108
0.124,0.113,-0.010,-0.119,0.066,0.051,0.077,0.537,0.542,0.297,0.191,0.104
0.125,0.117,-0.008,-0.121,0.066,0.054,0.074,0.553,0.564,0.319,0.202,0.107
0.126,0.121,-0.005,-0.123,0.065,0.058,0.075,0.578,0.589,0.344,0.219,0.130
0.130,0.125,-0.005,-0.127,0.067,0.060,0.075,0.580,0.595,0.355,0.235,0.140
0.133,0.132,-0.001,-0.132,0.066,0.065,0.067,0.592,0.614,0.378,0.250,0.143
0.148,0.148,0.000,-0.148,0.074,0.073,0.058,0.602,0.639,0.407,0.271,0.157
0.155,0.158,0.002,-0.157,0.076,0.080,0.053,0.608,0.659,0.429,0.286,0.171
0.148,0.153,0.005,-0.151,0.071,0.079,0.048,0.609,0.665,0.436,0.290,0.176
0.150,0.155,0.005,-0.153,0.072,0.080,0.040,0.610,0.665,0.440,0.295,0.180
0.160,0.180,0.020,-0.171,0.070,0.100,0.032,0.635,0.677,0.460,0.316,0.193
0.149,0.189,0.039,-0.169,0.055,0.114,0.024,0.640,0.689,0.473,0.326,0.193
0.152,0.197,0.045,-0.174,0.053,0.121,0.031,0.632,0.703,0.492,0.340,0.206
0.175,0.213,0.038,-0.194,0.068,0.126,0.040,0.630,0.718,0.512,0.357,0.228
0.175,0.215,0.040,-0.195,0.067,0.127,0.035,0.630,0.725,0.515,0.360,0.230
0.155,0.213,0.057,-0.184,0.049,0.134,0.035,0.626,0.721,0.532,0.372,0.234
0.172,0.231,0.059,-0.202,0.056,0.145,0.032,0.621,0.717,0.531,0.379,0.238
0.187,0.239,0.052,-0.214,0.068,0.145,0.030,0.621,0.712,0.522,0.383,0.243
0.178,0.228,0.050,-0.203,0.064,0.139,0.029,0.618,0.710,0.519,0.383,0.244
0.175,0.225,0.050,-0.200,0.062,0.137,0.025,0.605,0.705,0.515,0.370,0.235
0.171,0.217,0.046,-0.194,0.062,0.131,0.025,0.594,0.677,0.507,0.357,0.227
0.167,0.212,0.045,-0.190,0.061,0.128,0.022,0.570,0.653,0.501,0.349,0.219
0.162,0.206,0.044,-0.184,0.059,0.124,0.020,0.541,0.623,0.501,0.340,0.211
0.160,0.199,0.039,-0.180,0.061,0.119,0.019,0.512,0.587,0.489,0.326,0.203
0.160,0.195,0.035,-0.178,0.062,0.115,0.015,0.480,0.555,0.450,0.315,0.195
0.144,0.180,0.035,-0.162,0.054,0.107,0.014,0.449,0.507,0.414,0.309,0.193
0.131,0.163,0.032,-0.147,0.049,0.097,0.018,0.411,0.463,0.372,0.281,0.173
0.117,0.147,0.030,-0.132,0.043,0.088,0.021,0.370,0.412,0.330,0.241,0.149
0.103,0.131,0.029,-0.117,0.036,0.079,0.028,0.330,0.350,0.288,0.207,0.129
0.095,0.115,0.020,-0.105,0.037,0.067,0.040,0.290,0.295,0.235,0.175,0.105
0.079,0.095,0.016,-0.087,0.032,0.055,0.037,0.250,0.243,0.182,0.143,0.085
0.066,0.078,0.012,-0.072,0.027,0.045,0.033,0.210,0.193,0.137,0.111,0.063
0.053,0.061,0.008,-0.057,0.022,0.034,0.041,0.171,0.148,0.093,0.079,0.038
0.036,0.040,0.004,-0.038,0.016,0.022,0.052,0.137,0.104,0.050,0.047,0.014
0.020,0.020,0.000,-0.020,0.010,0.010,0.055,0.105,0.060,0.010,0.015,-0.005
0.010,0.008,-0.002,-0.008,0.005,0.003,0.058,0.073,0.020,-0.030,-0.012,-0.020
0.019,-0.004,-0.023,-0.007,0.021,-0.013,0.069,0.044,-0.018,-0.071,-0.047,-0.046
0.025,-0.016,-0.041,-0.004,0.033,-0.027,0.078,0.015,-0.050,-0.107,-0.081,-0.070
0.010,-0.029,-0.039,0.009,0.025,-0.033,0.081,-0.010,-0.076,-0.138,-0.105,-0.083
0.000,-0.040,-0.040,0.020,0.020,-0.040,0.090,-0.025,-0.100,-0.165,-0.120,-0.090
0.016,-0.042,-0.057,0.013,0.037,-0.049,0.102,-0.037,-0.119,-0.179,-0.126,-0.092
-0.009,-0.067,-0.059,0.038,0.025,-0.062,0.109,-0.052,-0.148,-0.214,-0.149,-0.113
-0.028,-0.082,-0.054,0.056,0.013,-0.067,0.110,-0.066,-0.166,-0.235,-0.165,-0.130
-0.027,-0.082,-0.055,0.055,0.014,-0.068,0.110,-0.079,-0.172,-0.237,-0.165,-0.130
-0.045,-0.100,-0.055,0.073,0.005,-0.077,0.110,-0.095,-0.185,-0.255,-0.170,-0.130
-0.051,-0.101,-0.051,0.076,0.000,-0.076,0.110,-0.095,-0.193,-0.263,-0.182,-0.133
-0.048,-0.097,-0.049,0.072,0.001,-0.073,0.110,-0.103,-0.201,-0.274,-0.194,-0.147
-0.058,-0.108,-0.051,0.083,-0.004,-0.079,0.110,-0.115,-0.207,-0.284,-0.207,-0.158
-0.072,-0.121,-0.049,0.096,-0.011,-0.085,0.111,-0.121,-0.212,-0.293,-0.215,-0.161
-0.070,-0.115,-0.045,0.093,-0.012,-0.080,0.115,-0.120,-0.220,-0.305,-0.210,-0.165
-0.070,-0.115,-0.045,0.093,-0.012,-0.080,0.115,-0.119,-0.216,-0.306,-0.208,-0.161
-0.067,-0.112,-0.045,0.090,-0.011,-0.078,0.115,-0.129,-0.214,-0.305,-0.223,-0.160
-0.065,-0.109,-0.045,0.087,-0.010,-0.076,0.115,-0.137,-0.215,-0.305,-0.231,-0.158
-0.065,-0.110,-0.045,0.088,-0.010,-0.077,0.115,-0.135,-0.215,-0.305,-0.223,-0.155
-0.070,-0.120,-0.050,0.095,-0.010,-0.085,0.115,-0.135,-0.215,-0.305,-0.220,-0.155
-0.085,-0.147,-0.061,0.116,-0.012,-0.104,0.115,-0.135,-0.215,-0.305,-0.220,-0.151
-0.068,-0.144,-0.076,0.106,0.004,-0.109,0.114,-0.135,-0.212,-0.304,-0.217,-0.150
-0.050,-0.130,-0.080,0.090,0.015,-0.104,0.117,-0.135,-0.209,-0.307,-0.215,-0.148
-0.049,-0.122,-0.074,0.086,0.013,-0.098,0.120,-0.136,-0.210,-0.310,-0.215,-0.145
-0.040,-0.110,-0.070,0.075,0.015,-0.090,0.120,-0.135,-0.210,-0.305,-0.210,-0.145
-0.036,-0.102,-0.066,0.070,0.015,-0.084,0.120,-0.123,-0.210,-0.301,-0.205,-0.141
-0.029,-0.091,-0.062,0.060,0.017,-0.076,0.120,-0.114,-0.211,-0.297,-0.205,-0.140
-0.022,-0.080,-0.058,0.052,0.018,-0.069,0.120,-0.104,-0.205,-0.293,-0.203,-0.138
-0.019,-0.073,-0.054,0.047,0.018,-0.064,0.120,-0.093,-0.192,-0.289,-0.200,-0.135
-0.015,-0.065,-0.050,0.040,0.018,-0.057,0.120,-0.085,-0.185,-0.285,-0.200,-0.135
-0.015,-0.057,-0.042,0.036,0.014,-0.049,0.120,-0.073,-0.177,-0.281,-0.196,-0.131
-0.016,-0.052,-0.036,0.034,0.011,-0.044,0.118,-0.063,-0.169,-0.274,-0.191,-0.130
-0.013,-0.047,-0.034,0.030,0.010,-0.040,0.128,-0.058,-0.161,-0.268,-0.190,-0.128
-0.010,-0.038,-0.028,0.024,0.009,-0.033,0.141,-0.054,-0.152,-0.263,-0.189,-0.125
-0.010,-0.030,-0.020,0.020,0.005,-0.025,0.135,-0.050,-0.145,-0.255,-0.185,-0.125
-0.010,-0.026,-0.016,0.019,0.003,-0.021,0.135,-0.050,-0.149,-0.251,-0.181,-0.121
-0.007,-0.020,-0.012,0.014,0.003,-0.015,0.132,-0.047,-0.151,-0.244,-0.180,-0.119
-0.002,-0.010,-0.008,0.007,0.003,-0.009,0.130,-0.045,-0.150,-0.238,-0.179,-0.121
0.000,-0.004,-0.004,0.002,0.002,-0.004,0.129,-0.045,-0.150,-0.234,-0.174,-0.119
0.000,0.000,0.000,0.000,0.000,0.000,0.125,-0.040,-0.150,-0.230,-0.170,-0.115
0.008,0.008,0.000,-0.008,0.004,0.004,0.125,-0.035,-0.150,-0.230,-0.166,-0.115
0.013,0.016,0.003,-0.015,0.005,0.009,0.122,-0.035,-0.150,-0.231,-0.162,-0.112
0.019,0.024,0.005,-0.022,0.006,0.014,0.120,-0.033,-0.150,-0.228,-0.158,-0.110
0.017,0.023,0.005,-0.021,0.006,0.014,0.119,-0.030,-0.150,-0.225,-0.155,-0.110
0.010,0.020,0.010,-0.015,0.000,0.015,0.115,-0.030,-0.150,-0.225,-0.155,-0.110
0.035,0.049,0.015,-0.042,0.010,0.032,0.115,-0.026,-0.150,-0.225,-0.151,-0.114
0.041,0.055,0.015,-0.049,0.013,0.035,0.112,-0.022,-0.150,-0.222,-0.150,-0.115
0.030,0.047,0.017,-0.038,0.006,0.031,0.110,-0.018,-0.150,-0.219,-0.150,-0.115
0.025,0.044,0.020,-0.034,0.002,0.032,0.109,-0.015,-0.150,-0.220,-0.150,-0.115
0.020,0.040,0.020,-0.030,0.000,0.030,0.105,-0.015,-0.150,-0.220,-0.150,-0.115
-0.001,0.036,0.037,-0.017,-0.020,0.036,0.106,-0.020,-0.150,-0.219,-0.150,-0.115
-0.005,0.032,0.036,-0.014,-0.021,0.034,0.097,-0.050,-0.151,-0.226,-0.150,-0.118
0.003,0.028,0.025,-0.016,-0.011,0.027,0.085,-0.071,-0.148,-0.232,-0.151,-0.121
0.005,0.023,0.018,-0.014,-0.007,0.020,0.078,-0.079,-0.153,-0.238,-0.156,-0.120
0.005,0.015,0.010,-0.010,-0.003,0.012,0.070,-0.100,-0.170,-0.250,-0.160,-0.120
0.005,0.007,0.002,-0.006,0.001,0.004,0.058,-0.109,-0.171,-0.254,-0.159,-0.120
0.004,-0.001,-0.006,-0.002,0.005,-0.003,0.049,-0.113,-0.169,-0.258,-0.169,-0.120
0.007,-0.008,-0.015,0.000,0.012,-0.011,0.041,-0.115,-0.174,-0.262,-0.179,-0.120
0.001,-0.019,-0.020,0.009,0.011,-0.019,0.033,-0.115,-0.181,-0.266,-0.179,-0.119
-0.025,-0.040,-0.015,0.033,-0.005,-0.027,0.025,-0.120,-0.185,-0.270,-0.180,-0.120
-0.045,-0.057,-0.012,0.052,-0.017,-0.034,0.014,-0.133,-0.189,-0.282,-0.193,-0.132
-0.029,-0.065,-0.036,0.047,0.004,-0.050,0.029,-0.133,-0.193,-0.289,-0.195,-0.139
-0.008,-0.064,-0.056,0.036,0.024,-0.059,0.045,-0.129,-0.197,-0.290,-0.200,-0.140
-0.013,-0.068,-0.055,0.041,0.021,-0.061,0.044,-0.130,-0.201,-0.291,-0.212,-0.140
-0.025,-0.080,-0.055,0.053,0.015,-0.067,0.050,-0.130,-0.205,-0.295,-0.215,-0.140
-0.019,-0.074,-0.055,0.047,0.018,-0.065,0.076,-0.126,-0.209,-0.295,-0.216,-0.137
-0.035,-0.090,-0.055,0.063,0.010,-0.072,0.079,-0.125,-0.210,-0.298,-0.212,-0.159
-0.047,-0.102,-0.054,0.075,0.004,-0.078,0.074,-0.125,-0.211,-0.301,-0.210,-0.171
-0.036,-0.092,-0.056,0.065,0.010,-0.074,0.074,-0.125,-0.209,-0.300,-0.209,-0.164
-0.040,-0.095,-0.055,0.068,0.008,-0.075,0.070,-0.130,-0.210,-0.305,-0.210,-0.165
-0.089,-0.128,-0.039,0.108,-0.024,-0.083,0.070,-0.152,-0.239,-0.321,-0.235,-0.165
-0.081,-0.141,-0.061,0.111,-0.010,-0.100,0.067,-0.154,-0.251,-0.330,-0.246,-0.165
-0.062,-0.139,-0.078,0.101,0.008,-0.108,0.065,-0.149,-0.249,-0.330,-0.245,-0.165
-0.073,-0.140,-0.068,0.106,-0.002,-0.104,0.064,-0.150,-0.250,-0.330,-0.245,-0.165
-0.070,-0.140,-0.070,0.105,0.000,-0.105,0.060,-0.150,-0.250,-0.330,-0.245,-0.165
-0.049,-0.140,-0.091,0.095,0.021,-0.115,0.060,-0.150,-0.250,-0.330,-0.245,-0.165
-0.046,-0.140,-0.094,0.093,0.024,-0.117,0.061,-0.150,-0.253,-0.329,-0.244,-0.165
-0.053,-0.140,-0.087,0.097,0.017,-0.113,0.058,-0.150,-0.256,-0.332,-0.247,-0.165
-0.056,-0.140,-0.084,0.098,0.014,-0.112,0.055,-0.150,-0.255,-0.335,-0.250,-0.165
-0.060,-0.140,-0.080,0.100,0.010,-0.110,0.055,-0.150,-0.255,-0.335,-0.250,-0.165
-0.064,-0.140,-0.076,0.102,0.006,-0.108,0.051,-0.150,-0.255,-0.335,-0.250,-0.165
-0.068,-0.140,-0.072,0.104,0.002,-0.106,0.050,-0.150,-0.255,-0.335,-0.250,-0.165
-0.072,-0.140,-0.068,0.107,-0.002,-0.104,0.048,-0.150,-0.255,-0.335,-0.250,-0.165
-0.075,-0.139,-0.064,0.108,-0.005,-0.101,0.045,-0.150,-0.255,-0.335,-0.249,-0.165
-0.075,-0.135,-0.060,0.105,-0.007,-0.097,0.045,-0.150,-0.255,-0.335,-0.245,-0.165
-0.079,-0.135,-0.056,0.107,-0.011,-0.095,0.041,-0.146,-0.255,-0.335,-0.245,-0.168
-0.080,-0.135,-0.055,0.108,-0.012,-0.095,0.039,-0.145,-0.255,-0.335,-0.245,-0.180
-0.081,-0.135,-0.054,0.108,-0.013,-0.094,0.041,-0.145,-0.255,-0.335,-0.245,-0.185
-0.086,-0.135,-0.049,0.111,-0.018,-0.091,0.039,-0.145,-0.255,-0.335,-0.245,-0.179
-0.095,-0.140,-0.045,0.118,-0.025,-0.092,0.035,-0.145,-0.255,-0.335,-0.245,-0.180
-0.109,-0.153,-0.044,0.132,-0.032,-0.099,0.035,-0.145,-0.255,-0.335,-0.245,-0.180
-0.105,-0.153,-0.048,0.129,-0.028,-0.101,0.032,-0.145,-0.255,-0.335,-0.245,-0.180
-0.099,-0.149,-0.050,0.124,-0.024,-0.100,0.030,-0.145,-0.255,-0.335,-0.245,-0.180
-0.100,-0.150,-0.051,0.125,-0.025,-0.101,0.029,-0.145,-0.255,-0.335,-0.245,-0.180
-0.090,-0.150,-0.060,0.120,-0.015,-0.105,0.025,-0.145,-0.255,-0.335,-0.245,-0.180
-0.068,-0.146,-0.078,0.107,0.005,-0.111,0.025,-0.145,-0.255,-0.335,-0.243,-0.180
-0.069,-0.144,-0.076,0.107,0.004,-0.109,0.022,-0.145,-0.255,-0.335,-0.258,-0.180
-0.078,-0.146,-0.067,0.112,-0.005,-0.106,0.020,-0.146,-0.256,-0.335,-0.265,-0.180
-0.081,-0.144,-0.063,0.113,-0.008,-0.104,0.019,-0.142,-0.253,-0.335,-0.251,-0.179
-0.085,-0.140,-0.055,0.113,-0.015,-0.097,0.015,-0.130,-0.240,-0.335,-0.245,-0.180
-0.089,-0.140,-0.051,0.114,-0.019,-0.095,0.014,-0.126,-0.228,-0.336,-0.265,-0.196
-0.095,-0.139,-0.044,0.117,-0.026,-0.092,0.024,-0.080,-0.215,-0.332,-0.277,-0.206
-0.105,-0.143,-0.037,0.124,-0.034,-0.090,0.052,-0.028,-0.207,-0.343,-0.301,-0.218
-0.100,-0.135,-0.034,0.118,-0.033,-0.084,0.098,0.039,-0.186,-0.346,-0.320,-0.242
-0.070,-0.100,-0.030,0.085,-0.020,-0.065,0.145,0.165,-0.125,-0.315,-0.300,-0.255
-0.046,-0.072,-0.026,0.059,-0.010,-0.049,0.164,0.278,-0.041,-0.290,-0.290,-0.228
-0.020,-0.044,-0.023,0.032,0.002,-0.033,0.165,0.391,0.075,-0.227,-0.250,-0.204
-0.004,-0.018,-0.014,0.011,0.005,-0.016,0.166,0.492,0.220,-0.128,-0.173,-0.165
0.038,0.016,-0.022,-0.027,0.030,-0.003,0.162,0.540,0.381,0.010,-0.055,-0.079
0.130,0.080,-0.050,-0.105,0.090,0.015,0.120,0.470,0.515,0.190,0.105,0.040
0.190,0.171,-0.020,-0.181,0.105,0.076,0.006,0.210,0.560,0.369,0.263,0.166
0.295,0.305,0.009,-0.300,0.143,0.157,-0.183,-0.190,0.582,0.603,0.485,0.350
0.401,0.452,0.051,-0.427,0.175,0.251,-0.426,-0.655,0.574,0.882,0.759,0.572
0.473,0.571,0.097,-0.522,0.187,0.334,-0.655,-1.035,0.572,1.173,1.040,0.796
0.560,0.655,0.095,-0.608,0.232,0.375,-0.815,-1.230,0.615,1.460,1.310,1.010
0.657,0.740,0.083,-0.699,0.286,0.412,-0.960,-1.376,0.596,1.736,1.559,1.204
0.669,0.855,0.186,-0.763,0.241,0.520,-1.097,-1.587,0.585,2.050,1.805,1.382
0.647,1.014,0.367,-0.831,0.140,0.690,-1.236,-1.860,0.511,2.352,2.036,1.557
0.636,1.131,0.495,-0.884,0.069,0.813,-1.372,-2.110,0.320,2.506,2.174,1.680
0.600,1.075,0.475,-0.838,0.062,0.775,-1.455,-2.230,0.105,2.405,2.130,1.680
0.546,0.847,0.302,-0.697,0.121,0.574,-1.428,-2.160,-0.038,2.074,1.921,1.568
0.514,0.626,0.112,-0.571,0.201,0.368,-1.344,-2.046,-0.214,1.673,1.647,1.409
0.459,0.464,0.005,-0.462,0.227,0.234,-1.244,-1.929,-0.410,1.232,1.345,1.239
0.367,0.326,-0.042,-0.346,0.205,0.142,-1.128,-1.795,-0.581,0.765,1.034,1.057
0.295,0.190,-0.105,-0.242,0.200,0.042,-0.985,-1.630,-0.725,0.310,0.735,0.860
0.251,0.081,-0.171,-0.165,0.211,-0.045,-0.833,-1.407,-0.812,-0.145,0.421,0.659
0.197,0.052,-0.145,-0.124,0.170,-0.046,-0.687,-1.189,-0.841,-0.470,0.108,0.435
0.135,0.053,-0.082,-0.094,0.108,-0.014,-0.557,-0.979,-0.768,-0.539,-0.047,0.260
0.083,0.042,-0.040,-0.063,0.061,0.002,-0.442,-0.778,-0.642,-0.456,-0.067,0.166
0.030,0.035,0.005,-0.033,0.012,0.020,-0.345,-0.625,-0.555,-0.410,-0.115,0.105
-0.027,0.027,0.054,0.000,-0.041,0.040,-0.284,-0.534,-0.477,-0.375,-0.150,0.049
-0.037,0.019,0.055,0.009,-0.046,0.037,-0.224,-0.454,-0.416,-0.335,-0.163,-0.008
-0.027,0.012,0.039,0.007,-0.033,0.026,-0.171,-0.364,-0.363,-0.313,-0.166,-0.044
-0.033,0.001,0.033,0.016,-0.033,0.017,-0.130,-0.283,-0.314,-0.308,-0.165,-0.058
-0.050,-0.025,0.025,0.037,-0.037,0.000,-0.090,-0.225,-0.270,-0.300,-0.165,-0.070
-0.068,-0.051,0.017,0.059,-0.042,-0.017,-0.061,-0.163,-0.223,-0.296,-0.173,-0.082
-0.071,-0.062,0.009,0.066,-0.039,-0.027,-0.036,-0.123,-0.203,-0.290,-0.181,-0.097
-0.071,-0.070,0.001,0.070,-0.036,-0.034,-0.017,-0.095,-0.197,-0.280,-0.189,-0.112
-0.076,-0.083,-0.007,0.080,-0.035,-0.045,-0.008,-0.070,-0.188,-0.274,-0.196,-0.121
-0.080,-0.095,-0.015,0.088,-0.032,-0.055,0.000,-0.060,-0.180,-0.270,-0.200,-0.125
-0.078,-0.100,-0.022,0.089,-0.028,-0.061,0.012,-0.052,-0.172,-0.266,-0.204,-0.137
-0.064,-0.100,-0.036,0.082,-0.014,-0.067,0.021,-0.041,-0.164,-0.265,-0.205,-0.144
-0.063,-0.102,-0.039,0.082,-0.012,-0.070,0.031,-0.031,-0.156,-0.263,-0.207,-0.145
-0.079,-0.105,-0.027,0.092,-0.025,-0.066,0.043,-0.022,-0.149,-0.260,-0.210,-0.146
-0.080,-0.105,-0.025,0.093,-0.027,-0.065,0.050,-0.010,-0.145,-0.260,-0.210,-0.150
-0.058,-0.109,-0.050,0.084,-0.004,-0.079,0.055,-0.002,-0.141,-0.256,-0.217,-0.149
-0.060,-0.114,-0.054,0.087,-0.002,-0.084,0.055,0.006,-0.137,-0.255,-0.231,-0.157
-0.064,-0.113,-0.049,0.089,-0.007,-0.081,0.057,0.012,-0.133,-0.253,-0.235,-0.159
-0.060,-0.110,-0.049,0.085,-0.006,-0.079,0.060,0.016,-0.129,-0.250,-0.228,-0.155
-0.065,-0.110,-0.045,0.088,-0.010,-0.077,0.060,0.020,-0.125,-0.250,-0.225,-0.155
-0.061,-0.106,-0.045,0.084,-0.007,-0.075,0.076,0.024,-0.121,-0.246,-0.225,-0.151
-0.063,-0.105,-0.042,0.084,-0.010,-0.073,0.085,0.028,-0.117,-0.245,-0.223,-0.150
-0.063,-0.103,-0.040,0.083,-0.011,-0.071,0.085,0.032,-0.113,-0.243,-0.217,-0.148
-0.061,-0.100,-0.039,0.080,-0.011,-0.069,0.085,0.036,-0.109,-0.240,-0.215,-0.144
-0.060,-0.100,-0.040,0.080,-0.010,-0.070,0.085,0.040,-0.105,-0.240,-0.215,-0.145
-0.030,-0.096,-0.065,0.063,0.018,-0.080,0.085,0.044,-0.101,-0.236,-0.207,-0.146
-0.025,-0.095,-0.070,0.061,0.023,-0.082,0.085,0.048,-0.096,-0.236,-0.201,-0.142
-0.031,-0.093,-0.062,0.062,0.016,-0.078,0.085,0.053,-0.095,-0.232,-0.199,-0.140
-0.031,-0.090,-0.059,0.060,0.014,-0.074,0.085,0.064,-0.094,-0.224,-0.193,-0.139
-0.035,-0.090,-0.055,0.063,0.010,-0.072,0.085,0.080,-0.085,-0.220,-0.185,-0.135
-0.035,-0.086,-0.051,0.060,0.009,-0.068,0.089,0.085,-0.077,-0.212,-0.181,-0.135
-0.038,-0.085,-0.047,0.062,0.005,-0.066,0.090,0.088,-0.069,-0.207,-0.177,-0.132
-0.040,-0.083,-0.043,0.062,0.002,-0.063,0.090,0.093,-0.061,-0.201,-0.173,-0.129
-0.041,-0.080,-0.039,0.061,-0.001,-0.059,0.090,0.095,-0.053,-0.194,-0.169,-0.130
-0.045,-0.080,-0.035,0.063,-0.005,-0.057,0.090,0.095,-0.045,-0.190,-0.165,-0.130
-0.033,-0.068,-0.035,0.051,0.002,-0.052,0.090,0.100,-0.042,-0.178,-0.161,-0.126
-0.026,-0.058,-0.032,0.043,0.003,-0.045,0.090,0.097,-0.031,-0.168,-0.157,-0.125
-0.022,-0.051,-0.029,0.037,0.004,-0.040,0.090,0.113,-0.021,-0.161,-0.153,-0.123
-0.013,-0.043,-0.030,0.028,0.009,-0.036,0.089,0.138,-0.012,-0.153,-0.150,-0.120
-0.005,-0.035,-0.030,0.020,0.013,-0.032,0.085,0.135,0.000,-0.145,-0.150,-0.120
-0.001,-0.027,-0.026,0.015,0.013,-0.026,0.085,0.146,0.008,-0.137,-0.146,-0.116
0.007,-0.019,-0.025,0.007,0.016,-0.022,0.085,0.161,0.019,-0.129,-0.141,-0.115
0.011,-0.013,-0.023,0.001,0.017,-0.018,0.085,0.166,0.030,-0.121,-0.140,-0.113
0.010,-0.009,-0.019,-0.001,0.015,-0.014,0.084,0.165,0.036,-0.113,-0.140,-0.110
0.015,-0.005,-0.020,-0.005,0.018,-0.012,0.080,0.165,0.040,-0.105,-0.135,-0.110
0.020,-0.001,-0.021,-0.010,0.021,-0.011,0.080,0.168,0.056,-0.101,-0.130,-0.106
0.014,0.000,-0.014,-0.007,0.014,-0.007,0.080,0.178,0.067,-0.095,-0.131,-0.105
0.009,0.001,-0.007,-0.005,0.008,-0.003,0.080,0.194,0.075,-0.085,-0.125,-0.102
0.010,0.006,-0.004,-0.008,0.007,0.001,0.079,0.215,0.088,-0.079,-0.112,-0.093
0.010,0.010,0.000,-0.010,0.005,0.005,0.075,0.235,0.105,-0.075,-0.105,-0.085
0.006,0.010,0.004,-0.008,0.001,0.007,0.075,0.248,0.129,-0.063,-0.097,-0.077
0.005,0.012,0.008,-0.009,-0.002,0.009,0.075,0.256,0.149,-0.051,-0.089,-0.069
0.005,0.018,0.013,-0.012,-0.004,0.015,0.075,0.266,0.159,-0.039,-0.081,-0.061
0.005,0.019,0.014,-0.013,-0.004,0.016,0.075,0.277,0.167,-0.027,-0.073,-0.053
0.015,0.020,0.005,-0.018,0.005,0.012,0.075,0.285,0.180,-0.015,-0.065,-0.045
0.037,0.037,0.000,-0.037,0.019,0.018,0.071,0.295,0.200,0.001,-0.053,-0.037
0.035,0.040,0.006,-0.037,0.015,0.023,0.070,0.321,0.216,0.014,-0.041,-0.029
0.032,0.045,0.013,-0.039,0.009,0.029,0.070,0.344,0.237,0.026,-0.029,-0.021
0.041,0.057,0.016,-0.049,0.012,0.036,0.070,0.359,0.260,0.038,-0.017,-0.013
0.035,0.055,0.020,-0.045,0.007,0.037,0.070,0.380,0.275,0.050,-0.005,-0.005
0.024,0.052,0.028,-0.038,-0.003,0.040,0.066,0.397,0.299,0.065,0.007,0.003
0.040,0.073,0.033,-0.057,0.003,0.053,0.065,0.408,0.321,0.089,0.019,0.011
0.054,0.091,0.037,-0.073,0.008,0.064,0.065,0.425,0.339,0.108,0.032,0.019
0.048,0.088,0.040,-0.068,0.004,0.064,0.065,0.444,0.353,0.117,0.042,0.028
0.055,0.090,0.035,-0.073,0.010,0.062,0.065,0.455,0.370,0.130,0.050,0.040
0.092,0.123,0.032,-0.108,0.030,0.077,0.065,0.470,0.398,0.154,0.066,0.049
0.076,0.133,0.057,-0.105,0.010,0.095,0.062,0.494,0.422,0.171,0.077,0.053
0.056,0.129,0.072,-0.093,-0.008,0.100,0.057,0.513,0.435,0.177,0.084,0.058
0.068,0.131,0.063,-0.100,0.002,0.096,0.055,0.531,0.450,0.191,0.101,0.069
0.065,0.130,0.065,-0.098,0.000,0.097,0.055,0.555,0.475,0.220,0.120,0.080
0.045,0.126,0.081,-0.086,-0.018,0.103,0.051,0.562,0.498,0.234,0.122,0.078
0.067,0.157,0.090,-0.112,-0.012,0.123,0.050,0.586,0.531,0.272,0.149,0.096
0.093,0.183,0.090,-0.138,0.001,0.136,0.049,0.607,0.552,0.295,0.172,0.121
0.096,0.186,0.090,-0.141,0.003,0.137,0.044,0.611,0.556,0.297,0.176,0.132
0.105,0.195,0.090,-0.150,0.007,0.142,0.040,0.620,0.570,0.320,0.190,0.140
0.118,0.212,0.094,-0.165,0.011,0.153,0.040,0.632,0.599,0.341,0.212,0.157
0.124,0.220,0.095,-0.172,0.014,0.157,0.037,0.640,0.613,0.351,0.215,0.164
0.125,0.220,0.095,-0.173,0.015,0.157,0.035,0.652,0.619,0.361,0.220,0.166
0.125,0.220,0.095,-0.173,0.015,0.157,0.034,0.669,0.635,0.380,0.240,0.171
0.120,0.220,0.100,-0.170,0.010,0.160,0.025,0.680,0.655,0.400,0.255,0.175
0.105,0.218,0.113,-0.162,-0.004,0.165,0.021,0.685,0.667,0.415,0.253,0.174
0.118,0.231,0.113,-0.175,0.003,0.172,0.018,0.686,0.684,0.439,0.273,0.187
0.136,0.246,0.110,-0.191,0.013,0.178,0.011,0.683,0.690,0.455,0.289,0.199
0.142,0.251,0.109,-0.197,0.016,0.180,0.004,0.679,0.693,0.464,0.293,0.209
0.155,0.260,0.105,-0.208,0.025,0.182,0.000,0.675,0.710,0.485,0.310,0.225
0.172,0.278,0.105,-0.225,0.034,0.191,-0.004,0.671,0.699,0.499,0.315,0.226
0.176,0.278,0.102,-0.228,0.037,0.190,-0.009,0.667,0.689,0.496,0.318,0.223
0.175,0.274,0.100,-0.224,0.037,0.187,-0.010,0.662,0.679,0.485,0.320,0.232
0.175,0.274,0.099,-0.225,0.038,0.186,-0.011,0.661,0.668,0.479,0.329,0.239
0.175,0.270,0.095,-0.223,0.040,0.182,-0.015,0.660,0.660,0.475,0.345,0.225
0.175,0.270,0.095,-0.223,0.040,0.182,-0.016,0.633,0.647,0.468,0.330,0.216
0.175,0.267,0.092,-0.221,0.041,0.179,-0.012,0.604,0.643,0.457,0.312,0.210
0.176,0.266,0.090,-0.221,0.043,0.177,-0.008,0.573,0.616,0.456,0.297,0.199
0.173,0.262,0.089,-0.218,0.041,0.175,-0.004,0.536,0.569,0.443,0.282,0.187
0.160,0.245,0.085,-0.203,0.037,0.165,0.000,0.500,0.530,0.400,0.265,0.180
0.148,0.233,0.085,-0.191,0.031,0.159,0.000,0.456,0.482,0.364,0.233,0.174
0.134,0.216,0.082,-0.175,0.026,0.148,0.002,0.414,0.434,0.320,0.203,0.153
0.115,0.195,0.081,-0.155,0.017,0.138,0.008,0.377,0.384,0.270,0.176,0.129
0.096,0.174,0.078,-0.135,0.009,0.126,0.010,0.341,0.333,0.223,0.148,0.110
0.085,0.150,0.065,-0.118,0.010,0.107,0.010,0.305,0.285,0.180,0.120,0.090
0.073,0.130,0.057,-0.102,0.008,0.093,0.014,0.261,0.233,0.141,0.084,0.070
0.060,0.110,0.050,-0.085,0.005,0.079,0.019,0.216,0.184,0.094,0.050,0.047
0.053,0.092,0.039,-0.073,0.007,0.065,0.020,0.175,0.133,0.047,0.019,0.023
0.047,0.075,0.028,-0.061,0.010,0.052,0.021,0.135,0.076,0.005,-0.013,-0.001
0.035,0.055,0.020,-0.045,0.007,0.037,0.025,0.095,0.025,-0.035,-0.045,-0.020
0.029,0.039,0.010,-0.034,0.009,0.023,0.025,0.063,-0.012,-0.071,-0.074,-0.036
0.003,0.025,0.022,-0.014,-0.010,0.024,0.027,0.030,-0.046,-0.109,-0.097,-0.054
-0.014,0.016,0.030,-0.001,-0.022,0.023,0.034,0.002,-0.086,-0.151,-0.125,-0.078
-0.017,0.007,0.024,0.004,-0.021,0.015,0.042,-0.022,-0.123,-0.188,-0.149,-0.099
-0.030,-0.005,0.025,0.017,-0.027,0.010,0.045,-0.045,-0.145,-0.210,-0.160,-0.110
-0.034,-0.013,0.021,0.023,-0.027,0.004,0.048,-0.053,-0.153,-0.227,-0.181,-0.118
-0.044,-0.024,0.020,0.034,-0.032,-0.002,0.063,-0.065,-0.168,-0.239,-0.188,-0.123
-0.053,-0.035,0.018,0.044,-0.036,-0.008,0.072,-0.086,-0.193,-0.252,-0.197,-0.129
-0.056,-0.041,0.015,0.048,-0.036,-0.013,0.070,-0.102,-0.214,-0.270,-0.213,-0.136
-0.060,-0.045,0.015,0.052,-0.037,-0.015,0.070,-0.105,-0.225,-0.285,-0.220,-0.140
-0.052,-0.045,0.007,0.048,-0.029,-0.019,0.070,-0.112,-0.229,-0.293,-0.228,-0.147
-0.050,-0.049,0.001,0.049,-0.026,-0.024,0.070,-0.125,-0.235,-0.306,-0.235,-0.160
-0.047,-0.048,-0.002,0.048,-0.022,-0.025,0.070,-0.132,-0.247,-0.324,-0.247,-0.168
-0.048,-0.054,-0.006,0.051,-0.021,-0.030,0.070,-0.129,-0.255,-0.337,-0.254,-0.170
-0.070,-0.080,-0.010,0.075,-0.030,-0.045,0.070,-0.130,-0.250,-0.340,-0.250,-0.170
-0.084,-0.098,-0.014,0.092,-0.035,-0.056,0.070,-0.143,-0.250,-0.340,-0.267,-0.166
-0.081,-0.098,-0.018,0.090,-0.031,-0.058,0.070,-0.144,-0.250,-0.340,-0.269,-0.164
-0.070,-0.092,-0.022,0.081,-0.023,-0.057,0.070,-0.137,-0.250,-0.340,-0.264,-0.166
-0.065,-0.090,-0.025,0.078,-0.020,-0.057,0.070,-0.135,-0.250,-0.340,-0.264,-0.164
-0.065,-0.090,-0.025,0.078,-0.020,-0.057,0.070,-0.135,-0.250,-0.340,-0.260,-0.160
-0.061,-0.086,-0.025,0.074,-0.018,-0.056,0.070,-0.131,-0.246,-0.340,-0.260,-0.160
-0.056,-0.081,-0.025,0.069,-0.015,-0.053,0.070,-0.126,-0.245,-0.337,-0.257,-0.161
-0.055,-0.080,-0.025,0.068,-0.015,-0.052,0.070,-0.125,-0.245,-0.332,-0.255,-0.158
-0.054,-0.079,-0.025,0.067,-0.014,-0.051,0.070,-0.124,-0.245,-0.330,-0.254,-0.155
-0.045,-0.070,-0.025,0.058,-0.010,-0.047,0.070,-0.115,-0.245,-0.330,-0.250,-0.155
-0.037,-0.062,-0.025,0.050,-0.006,-0.043,0.070,-0.107,-0.246,-0.326,-0.250,-0.155
-0.028,-0.054,-0.026,0.042,-0.001,-0.039,0.070,-0.099,-0.240,-0.321,-0.247,-0.155
-0.024,-0.046,-0.022,0.036,-0.001,-0.034,0.070,-0.091,-0.231,-0.320,-0.245,-0.153
-0.025,-0.038,-0.013,0.032,-0.006,-0.025,0.070,-0.083,-0.223,-0.319,-0.244,-0.149
-0.025,-0.030,-0.005,0.028,-0.010,-0.017,0.070,-0.075,-0.215,-0.310,-0.240,-0.145
-0.025,-0.026,-0.001,0.025,-0.011,-0.013,0.072,-0.067,-0.207,-0.306,-0.236,-0.141
-0.027,-0.022,0.005,0.025,-0.016,-0.008,0.091,-0.059,-0.199,-0.303,-0.232,-0.137
-0.033,-0.018,0.015,0.025,-0.024,-0.002,0.101,-0.053,-0.193,-0.296,-0.228,-0.133
-0.035,-0.014,0.021,0.024,-0.027,0.003,0.094,-0.049,-0.189,-0.289,-0.224,-0.129
-0.035,-0.010,0.025,0.022,-0.030,0.007,0.095,-0.045,-0.185,-0.285,-0.220,-0.125
-0.048,-0.007,0.041,0.027,-0.044,0.017,0.091,-0.041,-0.181,-0.281,-0.220,-0.121
-0.046,0.004,0.050,0.021,-0.048,0.027,0.089,-0.037,-0.177,-0.277,-0.217,-0.120
-0.035,0.015,0.050,0.010,-0.043,0.032,0.091,-0.032,-0.173,-0.273,-0.213,-0.121
-0.028,0.022,0.050,0.003,-0.039,0.036,0.089,-0.030,-0.169,-0.269,-0.209,-0.119
-0.020,0.030,0.050,-0.005,-0.035,0.040,0.085,-0.035,-0.165,-0.265,-0.205,-0.115
-0.008,0.042,0.050,-0.017,-0.029,0.046,0.085,-0.035,-0.165,-0.261,-0.201,-0.115
0.001,0.051,0.050,-0.026,-0.025,0.050,0.086,-0.035,-0.162,-0.256,-0.197,-0.115
0.009,0.060,0.051,-0.034,-0.022,0.055,0.083,-0.035,-0.160,-0.255,-0.193,-0.115
0.017,0.066,0.048,-0.042,-0.016,0.057,0.080,-0.035,-0.159,-0.254,-0.189,-0.115
0.020,0.065,0.045,-0.043,-0.013,0.055,0.080,-0.035,-0.155,-0.250,-0.185,-0.115
0.003,0.065,0.062,-0.035,-0.030,0.063,0.080,-0.035,-0.155,-0.250,-0.185,-0.115
0.001,0.065,0.064,-0.033,-0.032,0.064,0.077,-0.035,-0.152,-0.247,-0.185,-0.115
0.008,0.065,0.057,-0.037,-0.025,0.061,0.074,-0.035,-0.149,-0.245,-0.185,-0.115
0.011,0.065,0.054,-0.038,-0.022,0.059,0.076,-0.035,-0.151,-0.244,-0.185,-0.115
0.015,0.065,0.050,-0.040,-0.018,0.057,0.075,-0.035,-0.155,-0.240,-0.185,-0.115
0.020,0.066,0.046,-0.043,-0.014,0.056,0.063,-0.034,-0.159,-0.239,-0.185,-0.115
0.018,0.060,0.042,-0.039,-0.013,0.051,0.053,-0.041,-0.161,-0.249,-0.188,-0.115
0.013,0.051,0.038,-0.032,-0.013,0.044,0.047,-0.064,-0.174,-0.259,-0.190,-0.115
0.009,0.043,0.034,-0.027,-0.013,0.038,0.037,-0.089,-0.193,-0.268,-0.191,-0.114
0.005,0.035,0.030,-0.020,-0.013,0.032,0.025,-0.100,-0.200,-0.280,-0.200,-0.115
-0.003,0.027,0.030,-0.012,-0.017,0.028,0.017,-0.117,-0.205,-0.281,-0.221,-0.127
-0.012,0.019,0.031,-0.004,-0.022,0.024,0.009,-0.125,-0.204,-0.280,-0.230,-0.135
-0.017,0.011,0.028,0.003,-0.023,0.019,0.001,-0.125,-0.208,-0.280,-0.229,-0.135
-0.022,0.003,0.025,0.009,-0.023,0.014,-0.007,-0.125,-0.217,-0.289,-0.231,-0.136
-0.030,-0.005,0.025,0.017,-0.027,0.010,-0.010,-0.125,-0.220,-0.305,-0.235,-0.140
-0.038,-0.013,0.025,0.025,-0.031,0.006,-0.002,-0.125,-0.224,-0.310,-0.235,-0.139
-0.043,-0.021,0.022,0.032,-0.032,0.001,0.003,-0.128,-0.230,-0.312,-0.238,-0.146
-0.049,-0.029,0.020,0.039,-0.034,-0.004,0.009,-0.131,-0.242,-0.321,-0.242,-0.152
-0.057,-0.037,0.020,0.047,-0.038,-0.008,0.016,-0.130,-0.250,-0.332,-0.246,-0.157
-0.065,-0.045,0.020,0.055,-0.042,-0.012,0.020,-0.130,-0.245,-0.335,-0.255,-0.165
-0.074,-0.053,0.021,0.064,-0.047,-0.016,0.028,-0.130,-0.245,-0.335,-0.267,-0.170
-0.073,-0.059,0.014,0.066,-0.044,-0.022,0.034,-0.130,-0.245,-0.338,-0.274,-0.170
-0.068,-0.060,0.007,0.064,-0.037,-0.027,0.033,-0.130,-0.244,-0.340,-0.275,-0.172
-0.073,-0.069,0.004,0.071,-0.038,-0.032,0.029,-0.131,-0.247,-0.341,-0.275,-0.176
-0.090,-0.090,0.000,0.090,-0.045,-0.045,0.030,-0.135,-0.255,-0.345,-0.275,-0.180
-0.096,-0.104,-0.008,0.100,-0.043,-0.056,0.030,-0.135,-0.256,-0.349,-0.279,-0.184
-0.089,-0.103,-0.014,0.097,-0.037,-0.058,0.027,-0.135,-0.253,-0.353,-0.281,-0.185
-0.082,-0.097,-0.015,0.090,-0.033,-0.056,0.025,-0.134,-0.261,-0.355,-0.279,-0.184
-0.080,-0.104,-0.024,0.092,-0.028,-0.064,0.025,-0.136,-0.270,-0.355,-0.281,-0.186
-0.080,-0.120,-0.040,0.100,-0.020,-0.080,0.025,-0.140,-0.265,-0.355,-0.285,-0.190
-0.080,-0.117,-0.037,0.099,-0.021,-0.077,0.025,-0.136,-0.265,-0.355,-0.285,-0.190
-0.081,-0.115,-0.034,0.098,-0.023,-0.074,0.022,-0.134,-0.266,-0.358,-0.285,-0.190
-0.078,-0.113,-0.035,0.096,-0.021,-0.074,0.019,-0.135,-0.263,-0.361,-0.285,-0.188
-0.075,-0.110,-0.035,0.093,-0.020,-0.072,0.020,-0.135,-0.260,-0.360,-0.285,-0.184
-0.075,-0.110,-0.035,0.093,-0.020,-0.072,0.020,-0.135,-0.260,-0.360,-0.285,-0.185
-0.071,-0.106,-0.035,0.089,-0.018,-0.070,0.020,-0.135,-0.260,-0.360,-0.285,-0.186
-0.069,-0.104,-0.035,0.087,-0.016,-0.069,0.017,-0.135,-0.257,-0.360,-0.288,-0.182
-0.073,-0.108,-0.035,0.091,-0.019,-0.071,0.014,-0.135,-0.254,-0.360,-0.291,-0.180
-0.074,-0.109,-0.035,0.092,-0.020,-0.072,0.015,-0.135,-0.255,-0.360,-0.290,-0.179
-0.075,-0.110,-0.035,0.093,-0.020,-0.072,0.015,-0.135,-0.255,-0.360,-0.290,-0.180
-0.096,-0.131,-0.035,0.114,-0.030,-0.083,0.011,-0.135,-0.251,-0.360,-0.290,-0.201
-0.099,-0.134,-0.035,0.117,-0.032,-0.084,0.010,-0.135,-0.249,-0.360,-0.290,-0.204
-0.093,-0.129,-0.036,0.111,-0.029,-0.082,0.010,-0.135,-0.251,-0.360,-0.290,-0.199
-0.096,-0.130,-0.034,0.114,-0.031,-0.082,0.010,-0.135,-0.249,-0.360,-0.290,-0.200
-0.095,-0.130,-0.035,0.113,-0.030,-0.082,0.010,-0.135,-0.245,-0.360,-0.290,-0.200
-0.074,-0.130,-0.056,0.102,-0.009,-0.093,0.006,-0.135,-0.245,-0.360,-0.290,-0.200
-0.072,-0.131,-0.059,0.101,-0.006,-0.094,0.005,-0.135,-0.246,-0.360,-0.290,-0.201
-0.074,-0.128,-0.054,0.102,-0.010,-0.091,0.005,-0.135,-0.243,-0.360,-0.290,-0.198
-0.070,-0.125,-0.054,0.098,-0.007,-0.089,0.005,-0.135,-0.240,-0.360,-0.290,-0.195
-0.075,-0.125,-0.050,0.100,-0.012,-0.087,0.005,-0.135,-0.240,-0.360,-0.290,-0.195
-0.075,-0.125,-0.050,0.100,-0.012,-0.087,0.001,-0.135,-0.241,-0.360,-0.290,-0.195
-0.078,-0.125,-0.047,0.102,-0.015,-0.086,0.000,-0.137,-0.237,-0.360,-0.290,-0.195
-0.081,-0.126,-0.045,0.104,-0.018,-0.085,-0.001,-0.129,-0.235,-0.360,-0.290,-0.194
-0.079,-0.124,-0.045,0.102,-0.017,-0.084,-0.006,-0.119,-0.235,-0.361,-0.291,-0.196
-0.070,-0.115,-0.045,0.093,-0.012,-0.080,-0.005,-0.110,-0.235,-0.365,-0.295,-0.200
-0.059,-0.107,-0.048,0.084,-0.005,-0.078,0.015,-0.062,-0.238,-0.366,-0.298,-0.202
-0.077,-0.098,-0.021,0.088,-0.028,-0.059,0.030,-0.022,-0.215,-0.363,-0.312,-0.227
-0.112,-0.093,0.019,0.102,-0.065,-0.036,0.073,0.067,-0.189,-0.370,-0.341,-0.258
-0.124,-0.079,0.045,0.102,-0.084,-0.017,0.121,0.200,-0.150,-0.354,-0.345,-0.263
-0.110,-0.050,0.060,0.080,-0.085,0.005,0.125,0.305,-0.060,-0.290,-0.305,-0.245
-0.102,-0.024,0.078,0.063,-0.089,0.027,0.143,0.420,0.050,-0.237,-0.277,-0.233
-0.055,0.020,0.076,0.018,-0.066,0.048,0.137,0.499,0.180,-0.148,-0.205,-0.181
0.000,0.066,0.066,-0.033,-0.034,0.066,0.130,0.530,0.334,-0.015,-0.090,-0.095
0.059,0.124,0.065,-0.092,-0.004,0.094,0.107,0.445,0.466,0.149,0.055,0.017
0.160,0.220,0.060,-0.190,0.050,0.140,0.000,0.170,0.530,0.340,0.235,0.160
0.278,0.328,0.050,-0.304,0.114,0.188,-0.181,-0.225,0.558,0.555,0.436,0.322
0.373,0.470,0.097,-0.422,0.138,0.283,-0.441,-0.708,0.558,0.815,0.701,0.538
0.476,0.596,0.119,-0.536,0.178,0.357,-0.675,-1.099,0.575,1.093,0.980,0.765
0.591,0.670,0.079,-0.631,0.256,0.374,-0.857,-1.303,0.640,1.371,1.241,0.971
0.660,0.725,0.065,-0.693,0.297,0.395,-1.040,-1.445,0.695,1.655,1.495,1.165
0.667,0.811,0.144,-0.740,0.261,0.478,-1.174,-1.679,0.641,1.936,1.717,1.336
0.697,0.972,0.276,-0.835,0.210,0.624,-1.309,-1.932,0.594,2.235,1.957,1.520
0.704,1.095,0.391,-0.900,0.157,0.743,-1.460,-2.144,0.479,2.406,2.108,1.654
0.665,1.041,0.376,-0.853,0.144,0.708,-1.524,-2.225,0.309,2.309,2.066,1.666
0.635,0.820,0.185,-0.728,0.225,0.502,-1.455,-2.125,0.190,1.990,1.865,1.565
0.617,0.594,-0.023,-0.605,0.320,0.285,-1.403,-1.984,0.021,1.616,1.606,1.408
0.541,0.422,-0.119,-0.481,0.330,0.152,-1.300,-1.858,-0.195,1.186,1.309,1.231
0.444,0.294,-0.150,-0.369,0.296,0.072,-1.175,-1.756,-0.438,0.723,1.004,1.049
0.367,0.174,-0.193,-0.271,0.280,-0.010,-1.050,-1.606,-0.622,0.278,0.714,0.863
0.300,0.075,-0.225,-0.187,0.262,-0.075,-0.895,-1.375,-0.710,-0.130,0.420,0.660
0.232,0.059,-0.173,-0.145,0.202,-0.057,-0.739,-1.172,-0.820,-0.471,0.105,0.438
0.165,0.056,-0.110,-0.110,0.138,-0.026,-0.583,-0.947,-0.749,-0.517,-0.057,0.282
0.108,0.046,-0.062,-0.076,0.085,-0.008,-0.461,-0.757,-0.624,-0.452,-0.104,0.186
0.049,0.037,-0.011,-0.043,0.030,0.013,-0.382,-0.639,-0.566,-0.434,-0.139,0.114
-0.010,0.025,0.035,-0.008,-0.023,0.030,-0.315,-0.540,-0.505,-0.400,-0.175,0.050
-0.027,0.017,0.044,0.005,-0.036,0.030,-0.258,-0.444,-0.436,-0.367,-0.197,-0.017
-0.046,0.010,0.056,0.018,-0.051,0.033,-0.205,-0.350,-0.378,-0.339,-0.204,-0.052
-0.058,-0.003,0.055,0.030,-0.057,0.026,-0.156,-0.261,-0.321,-0.311,-0.205,-0.069
-0.054,-0.019,0.035,0.036,-0.044,0.008,-0.107,-0.191,-0.270,-0.292,-0.205,-0.090
-0.050,-0.030,0.020,0.040,-0.035,-0.005,-0.060,-0.145,-0.235,-0.290,-0.205,-0.105
-0.046,-0.042,0.004,0.044,-0.025,-0.019,-0.043,-0.095,-0.197,-0.291,-0.203,-0.108
-0.043,-0.054,-0.010,0.049,-0.016,-0.031,-0.029,-0.070,-0.184,-0.287,-0.217,-0.124
-0.050,-0.068,-0.018,0.059,-0.016,-0.042,-0.011,-0.058,-0.184,-0.285,-0.229,-0.143
-0.063,-0.084,-0.021,0.074,-0.021,-0.053,0.003,-0.041,-0.179,-0.284,-0.230,-0.151
-0.070,-0.095,-0.025,0.083,-0.022,-0.060,0.015,-0.025,-0.175,-0.280,-0.230,-0.150
-0.070,-0.091,-0.021,0.081,-0.024,-0.056,0.040,-0.013,-0.175,-0.280,-0.234,-0.150
-0.070,-0.089,-0.019,0.080,-0.025,-0.054,0.051,-0.003,-0.173,-0.281,-0.235,-0.150
-0.070,-0.090,-0.021,0.080,-0.024,-0.055,0.049,0.002,-0.167,-0.278,-0.237,-0.149
-0.071,-0.090,-0.019,0.081,-0.026,-0.055,0.051,0.007,-0.165,-0.275,-0.240,-0.152
-0.075,-0.090,-0.015,0.083,-0.030,-0.052,0.055,0.015,-0.165,-0.275,-0.240,-0.160
-0.071,-0.086,-0.015,0.079,-0.028,-0.050,0.054,0.019,-0.161,-0.271,-0.249,-0.156
-0.070,-0.085,-0.015,0.078,-0.027,-0.050,0.061,0.026,-0.156,-0.270,-0.248,-0.154
-0.070,-0.085,-0.015,0.078,-0.027,-0.050,0.068,0.033,-0.155,-0.268,-0.245,-0.155
-0.071,-0.085,-0.014,0.078,-0.028,-0.049,0.070,0.036,-0.154,-0.264,-0.244,-0.155
-0.075,-0.085,-0.010,0.080,-0.032,-0.047,0.070,0.040,-0.145,-0.265,-0.240,-0.155
-0.076,-0.085,-0.010,0.081,-0.032,-0.047,0.070,0.047,-0.141,-0.265,-0.240,-0.155
-0.072,-0.082,-0.010,0.077,-0.031,-0.046,0.073,0.059,-0.134,-0.262,-0.241,-0.156
-0.069,-0.079,-0.010,0.074,-0.029,-0.045,0.076,0.068,-0.128,-0.257,-0.238,-0.153
-0.071,-0.080,-0.009,0.076,-0.031,-0.045,0.075,0.070,-0.123,-0.255,-0.235,-0.150
-0.075,-0.080,-0.005,0.078,-0.035,-0.042,0.075,0.070,-0.115,-0.255,-0.235,-0.150
-0.076,-0.080,-0.005,0.079,-0.036,-0.042,0.079,0.074,-0.111,-0.251,-0.231,-0.150
-0.071,-0.077,-0.006,0.075,-0.032,-0.041,0.080,0.078,-0.105,-0.246,-0.229,-0.150
-0.071,-0.074,-0.003,0.073,-0.034,-0.039,0.080,0.083,-0.095,-0.245,-0.230,-0.150
-0.076,-0.075,0.000,0.075,-0.037,-0.037,0.080,0.085,-0.089,-0.244,-0.229,-0.150
-0.075,-0.075,0.000,0.075,-0.037,-0.037,0.080,0.085,-0.085,-0.235,-0.225,-0.150
-0.075,-0.075,0.000,0.075,-0.037,-0.037,0.080,0.098,-0.077,-0.231,-0.221,-0.146
-0.076,-0.076,-0.001,0.076,-0.037,-0.038,0.083,0.099,-0.068,-0.228,-0.217,-0.145
-0.073,-0.071,0.002,0.072,-0.037,-0.034,0.086,0.107,-0.063,-0.221,-0.213,-0.145
-0.069,-0.064,0.005,0.066,-0.037,-0.029,0.085,0.122,-0.058,-0.213,-0.209,-0.145
-0.065,-0.060,0.005,0.062,-0.035,-0.027,0.085,0.120,-0.045,-0.210,-0.205,-0.145
-0.057,-0.052,0.005,0.054,-0.031,-0.023,0.085,0.119,-0.037,-0.207,-0.206,-0.145
-0.052,-0.047,0.005,0.049,-0.028,-0.021,0.086,0.125,-0.029,-0.196,-0.200,-0.146
-0.048,-0.041,0.007,0.044,-0.027,-0.017,0.083,0.136,-0.021,-0.185,-0.191,-0.142
-0.045,-0.034,0.011,0.039,-0.028,-0.011,0.080,0.147,-0.013,-0.178,-0.183,-0.133
-0.045,-0.030,0.015,0.037,-0.030,-0.007,0.080,0.150,-0.005,-0.170,-0.175,-0.130
-0.041,-0.022,0.019,0.031,-0.030,-0.001,0.080,0.152,0.003,-0.162,-0.167,-0.126
-0.040,-0.017,0.023,0.028,-0.031,0.003,0.080,0.170,0.014,-0.154,-0.159,-0.119
-0.039,-0.013,0.025,0.025,-0.032,0.006,0.080,0.186,0.026,-0.146,-0.151,-0.112
-0.034,-0.009,0.025,0.021,-0.029,0.008,0.079,0.192,0.038,-0.137,-0.143,-0.109
-0.030,-0.005,0.025,0.017,-0.027,0.010,0.075,0.200,0.050,-0.125,-0.135,-0.105
-0.026,-0.001,0.025,0.013,-0.025,0.012,0.075,0.208,0.057,-0.117,-0.127,-0.097
-0.022,0.003,0.025,0.009,-0.024,0.014,0.075,0.219,0.072,-0.109,-0.119,-0.092
-0.016,0.009,0.025,0.003,-0.021,0.017,0.075,0.231,0.084,-0.101,-0.111,-0.088
-0.008,0.017,0.025,-0.005,-0.017,0.021,0.075,0.244,0.094,-0.092,-0.103,-0.084
0.000,0.025,0.025,-0.013,-0.013,0.025,0.075,0.260,0.115,-0.080,-0.095,-0.080
0.010,0.033,0.023,-0.022,-0.007,0.028,0.075,0.276,0.132,-0.068,-0.092,-0.076
0.001,0.041,0.040,-0.021,-0.020,0.040,0.072,0.289,0.144,-0.056,-0.081,-0.073
-0.004,0.049,0.053,-0.023,-0.029,0.050,0.069,0.301,0.158,-0.044,-0.071,-0.066
0.007,0.057,0.049,-0.032,-0.021,0.053,0.070,0.322,0.182,-0.031,-0.062,-0.059
0.010,0.060,0.050,-0.035,-0.020,0.055,0.070,0.350,0.210,-0.015,-0.050,-0.055
0.008,0.058,0.050,-0.033,-0.021,0.054,0.070,0.362,0.222,0.001,-0.042,-0.047
0.023,0.073,0.050,-0.048,-0.014,0.061,0.071,0.376,0.236,0.017,-0.031,-0.042
0.031,0.080,0.050,-0.055,-0.010,0.065,0.068,0.394,0.253,0.032,-0.021,-0.036
0.024,0.074,0.050,-0.049,-0.014,0.061,0.065,0.408,0.269,0.043,-0.012,-0.029
0.025,0.075,0.050,-0.050,-0.013,0.062,0.065,0.420,0.285,0.055,0.000,-0.025
0.034,0.083,0.049,-0.059,-0.008,0.065,0.065,0.440,0.309,0.071,0.012,-0.013
0.031,0.091,0.060,-0.061,-0.015,0.075,0.065,0.459,0.330,0.090,0.024,-0.001
0.036,0.101,0.065,-0.069,-0.015,0.083,0.065,0.483,0.350,0.110,0.036,0.011
0.054,0.112,0.058,-0.083,-0.002,0.085,0.065,0.502,0.369,0.129,0.047,0.022
0.055,0.115,0.060,-0.085,-0.003,0.087,0.065,0.510,0.390,0.145,0.055,0.030
0.040,0.117,0.077,-0.079,-0.018,0.097,0.061,0.538,0.423,0.165,0.066,0.037
0.054,0.135,0.082,-0.094,-0.014,0.108,0.056,0.558,0.441,0.186,0.082,0.049
0.070,0.150,0.079,-0.110,-0.005,0.114,0.055,0.574,0.451,0.202,0.097,0.058
0.069,0.150,0.080,-0.109,-0.006,0.115,0.054,0.587,0.470,0.213,0.107,0.060
0.075,0.155,0.080,-0.115,-0.003,0.117,0.050,0.595,0.495,0.230,0.115,0.065
0.101,0.179,0.078,-0.140,0.011,0.128,0.050,0.623,0.524,0.258,0.134,0.089
0.100,0.193,0.093,-0.147,0.003,0.143,0.047,0.647,0.546,0.282,0.156,0.106
0.096,0.196,0.100,-0.147,-0.002,0.148,0.045,0.661,0.564,0.295,0.171,0.115
0.108,0.202,0.094,-0.155,0.007,0.147,0.045,0.673,0.586,0.311,0.185,0.128
0.115,0.210,0.095,-0.163,0.010,0.152,0.040,0.685,0.610,0.340,0.205,0.140
0.122,0.218,0.095,-0.170,0.014,0.156,0.035,0.697,0.627,0.357,0.213,0.144
0.134,0.229,0.095,-0.182,0.019,0.162,0.035,0.706,0.636,0.370,0.227,0.148
0.143,0.239,0.095,-0.191,0.024,0.167,0.033,0.714,0.645,0.379,0.239,0.152
0.145,0.240,0.094,-0.193,0.025,0.167,0.030,0.723,0.658,0.389,0.241,0.157
0.150,0.245,0.095,-0.198,0.027,0.170,0.030,0.735,0.675,0.410,0.250,0.170
0.167,0.274,0.107,-0.221,0.030,0.190,0.026,0.744,0.697,0.435,0.270,0.187
0.167,0.286,0.119,-0.227,0.024,0.202,0.025,0.747,0.703,0.449,0.285,0.194
0.152,0.284,0.132,-0.219,0.009,0.208,0.025,0.757,0.713,0.464,0.295,0.198
0.145,0.285,0.140,-0.215,0.002,0.212,0.025,0.764,0.735,0.485,0.309,0.208
0.150,0.285,0.135,-0.218,0.007,0.210,0.025,0.750,0.745,0.500,0.325,0.220
0.153,0.284,0.131,-0.218,0.010,0.207,0.025,0.742,0.733,0.509,0.333,0.228
0.168,0.295,0.127,-0.232,0.020,0.211,0.025,0.734,0.723,0.508,0.346,0.238
0.176,0.298,0.123,-0.238,0.027,0.210,0.025,0.727,0.716,0.503,0.348,0.238
0.168,0.287,0.120,-0.227,0.024,0.204,0.025,0.715,0.709,0.499,0.338,0.228
0.160,0.280,0.120,-0.220,0.020,0.200,0.025,0.690,0.700,0.495,0.330,0.220
0.156,0.272,0.116,-0.214,0.020,0.194,0.025,0.667,0.669,0.493,0.322,0.212
0.152,0.264,0.112,-0.208,0.020,0.188,0.025,0.634,0.637,0.471,0.315,0.204
0.147,0.255,0.108,-0.201,0.020,0.182,0.025,0.597,0.599,0.442,0.301,0.195
0.145,0.249,0.104,-0.198,0.021,0.176,0.025,0.560,0.554,0.411,0.280,0.189
0.145,0.245,0.100,-0.195,0.022,0.172,0.025,0.515,0.510,0.370,0.260,0.185
0.129,0.229,0.101,-0.179,0.014,0.165,0.025,0.471,0.458,0.335,0.228,0.162
0.118,0.213,0.095,-0.166,0.011,0.153,0.025,0.424,0.406,0.287,0.197,0.137
0.110,0.195,0.086,-0.153,0.012,0.140,0.025,0.377,0.352,0.235,0.161,0.111
0.097,0.175,0.078,-0.136,0.009,0.127,0.025,0.334,0.296,0.189,0.120,0.083
0.085,0.155,0.070,-0.120,0.007,0.112,0.025,0.290,0.240,0.145,0.085,0.060
0.069,0.131,0.062,-0.100,0.003,0.096,0.029,0.246,0.184,0.101,0.052,0.039
0.056,0.109,0.054,-0.082,0.001,0.081,0.030,0.205,0.130,0.057,0.024,0.023
0.044,0.092,0.048,-0.068,-0.002,0.069,0.032,0.164,0.081,0.012,-0.006,0.005
0.032,0.076,0.044,-0.054,-0.006,0.060,0.035,0.126,0.033,-0.028,-0.037,-0.015
0.020,0.060,0.040,-0.040,-0.010,0.050,0.035,0.095,-0.010,-0.060,-0.065,-0.035
0.009,0.044,0.036,-0.027,-0.014,0.039,0.047,0.063,-0.043,-0.104,-0.094,-0.059
-0.008,0.028,0.035,-0.011,-0.021,0.031,0.054,0.034,-0.072,-0.140,-0.112,-0.079
-0.020,0.013,0.033,0.003,-0.027,0.023,0.055,0.006,-0.110,-0.171,-0.131,-0.090
-0.027,0.003,0.030,0.012,-0.029,0.016,0.055,-0.022,-0.148,-0.202,-0.157,-0.105
-0.035,-0.005,0.030,0.020,-0.032,0.012,0.055,-0.045,-0.170,-0.220,-0.180,-0.125
-0.039,-0.013,0.026,0.025,-0.032,0.007,0.055,-0.061,-0.189,-0.231,-0.197,-0.124
-0.045,-0.024,0.021,0.034,-0.033,-0.001,0.058,-0.078,-0.214,-0.250,-0.209,-0.137
-0.055,-0.035,0.020,0.045,-0.037,-0.007,0.062,-0.090,-0.231,-0.267,-0.222,-0.149
-0.061,-0.042,0.019,0.051,-0.040,-0.011,0.066,-0.097,-0.236,-0.277,-0.230,-0.151
-0.065,-0.050,0.015,0.057,-0.040,-0.017,0.070,-0.105,-0.240,-0.285,-0.230,-0.160
-0.074,-0.059,0.015,0.066,-0.045,-0.021,0.074,-0.108,-0.243,-0.296,-0.242,-0.165
-0.075,-0.063,0.012,0.068,-0.043,-0.025,0.078,-0.120,-0.253,-0.313,-0.250,-0.164
-0.079,-0.069,0.009,0.074,-0.043,-0.030,0.080,-0.125,-0.266,-0.322,-0.248,-0.169
-0.085,-0.075,0.010,0.080,-0.048,-0.032,0.080,-0.119,-0.270,-0.320,-0.253,-0.175
-0.080,-0.070,0.010,0.075,-0.045,-0.030,0.080,-0.120,-0.265,-0.320,-0.270,-0.170
-0.072,-0.066,0.006,0.068,-0.038,-0.030,0.080,-0.116,-0.265,-0.320,-0.267,-0.170
-0.066,-0.062,0.004,0.063,-0.035,-0.028,0.080,-0.114,-0.266,-0.320,-0.262,-0.167
-0.065,-0.060,0.006,0.062,-0.036,-0.027,0.080,-0.116,-0.263,-0.320,-0.258,-0.165
-0.064,-0.059,0.004,0.061,-0.034,-0.027,0.081,-0.114,-0.259,-0.320,-0.255,-0.164
-0.055,-0.055,0.000,0.055,-0.027,-0.027,0.085,-0.110,-0.260,-0.320,-0.255,-0.160
-0.050,-0.051,0.000,0.050,-0.025,-0.025,0.085,-0.110,-0.261,-0.320,-0.251,-0.160
-0.050,-0.050,0.000,0.050,-0.026,-0.025,0.085,-0.107,-0.255,-0.320,-0.246,-0.157
-0.048,-0.049,-0.001,0.048,-0.023,-0.025,0.085,-0.104,-0.245,-0.320,-0.245,-0.155
-0.045,-0.044,0.002,0.044,-0.023,-0.021,0.086,-0.106,-0.239,-0.320,-0.244,-0.154
-0.050,-0.040,0.010,0.045,-0.030,-0.015,0.090,-0.105,-0.235,-0.320,-0.240,-0.150
-0.055,-0.041,0.014,0.047,-0.034,-0.013,0.094,-0.093,-0.227,-0.312,-0.236,-0.150
-0.053,-0.032,0.021,0.041,-0.037,-0.005,0.098,-0.081,-0.218,-0.303,-0.235,-0.147
-0.048,-0.021,0.027,0.034,-0.037,0.003,0.100,-0.069,-0.213,-0.298,-0.234,-0.145
-0.044,-0.012,0.032,0.028,-0.037,0.009,0.100,-0.057,-0.208,-0.293,-0.229,-0.144
-0.040,0.000,0.040,0.020,-0.040,0.020,0.105,-0.045,-0.200,-0.285,-0.225,-0.140
-0.037,0.008,0.045,0.014,-0.041,0.026,0.110,-0.036,-0.196,-0.276,-0.221,-0.140
-0.027,0.019,0.045,0.003,-0.036,0.032,0.107,-0.032,-0.193,-0.272,-0.217,-0.137
-0.014,0.030,0.045,-0.008,-0.030,0.038,0.104,-0.028,-0.186,-0.266,-0.213,-0.134
-0.010,0.035,0.045,-0.013,-0.028,0.040,0.105,-0.024,-0.179,-0.259,-0.210,-0.135
-0.005,0.040,0.045,-0.018,-0.025,0.042,0.105,-0.020,-0.175,-0.255,-0.210,-0.135
0.016,0.061,0.045,-0.039,-0.015,0.053,0.105,-0.016,-0.171,-0.251,-0.206,-0.135
0.019,0.064,0.045,-0.042,-0.013,0.054,0.105,-0.012,-0.170,-0.247,-0.202,-0.135
0.014,0.059,0.045,-0.037,-0.016,0.051,0.105,-0.008,-0.170,-0.243,-0.198,-0.135
0.015,0.060,0.045,-0.038,-0.015,0.052,0.105,-0.005,-0.170,-0.239,-0.194,-0.135
0.015,0.060,0.045,-0.038,-0.015,0.052,0.105,-0.005,-0.170,-0.235,-0.190,-0.135
0.015,0.060,0.045,-0.038,-0.015,0.052,0.105,-0.001,-0.170,-0.231,-0.186,-0.135
0.014,0.060,0.046,-0.038,-0.016,0.052,0.105,0.000,-0.170,-0.230,-0.185,-0.135
0.017,0.060,0.043,-0.039,-0.013,0.051,0.105,0.002,-0.170,-0.228,-0.183,-0.135
0.011,0.060,0.049,-0.036,-0.019,0.054,0.105,0.006,-0.170,-0.225,-0.179,-0.135
-0.005,0.060,0.065,-0.028,-0.035,0.062,0.105,0.005,-0.170,-0.225,-0.180,-0.135
0.002,0.060,0.058,-0.032,-0.028,0.058,0.105,-0.003,-0.170,-0.221,-0.181,-0.135
0.009,0.060,0.051,-0.034,-0.021,0.055,0.104,-0.011,-0.170,-0.219,-0.177,-0.135
0.013,0.061,0.048,-0.037,-0.018,0.055,0.107,-0.020,-0.169,-0.222,-0.175,-0.135
0.014,0.058,0.044,-0.036,-0.015,0.050,0.102,-0.025,-0.171,-0.226,-0.175,-0.135
0.005,0.045,0.040,-0.025,-0.018,0.042,0.080,-0.030,-0.180,-0.230,-0.175,-0.135
0.001,0.037,0.036,-0.020,-0.018,0.037,0.058,-0.054,-0.192,-0.241,-0.187,-0.135
-0.006,0.026,0.032,-0.010,-0.019,0.029,0.050,-0.074,-0.205,-0.255,-0.194,-0.135
-0.012,0.016,0.028,-0.002,-0.020,0.022,0.050,-0.084,-0.213,-0.263,-0.196,-0.135
-0.016,0.007,0.024,0.004,-0.020,0.015,0.050,-0.092,-0.216,-0.266,-0.203,-0.135
-0.025,-0.005,0.020,0.015,-0.022,0.007,0.050,-0.100,-0.220,-0.270,-0.215,-0.135
-0.034,-0.014,0.020,0.024,-0.027,0.003,0.046,-0.104,-0.224,-0.274,-0.216,-0.135
-0.033,-0.016,0.017,0.024,-0.024,0.000,0.044,-0.105,-0.228,-0.275,-0.215,-0.135
-0.029,-0.014,0.015,0.021,-0.021,0.001,0.046,-0.105,-0.231,-0.277,-0.216,-0.134
-0.032,-0.017,0.015,0.024,-0.023,-0.001,0.044,-0.106,-0.230,-0.280,-0.214,-0.137
-0.040,-0.030,0.010,0.035,-0.025,-0.010,0.040,-0.110,-0.230,-0.280,-0.215,-0.145
-0.047,-0.042,0.005,0.044,-0.026,-0.018,0.040,-0.110,-0.238,-0.282,-0.231,-0.148
-0.060,-0.055,0.005,0.057,-0.033,-0.024,0.041,-0.109,-0.244,-0.298,-0.242,-0.159
-0.066,-0.063,0.003,0.064,-0.034,-0.029,0.038,-0.112,-0.245,-0.307,-0.247,-0.170
-0.066,-0.066,0.000,0.066,-0.032,-0.033,0.035,-0.115,-0.246,-0.305,-0.251,-0.176
-0.070,-0.070,0.000,0.070,-0.035,-0.035,0.035,-0.115,-0.250,-0.305,-0.255,-0.180
-0.066,-0.074,-0.008,0.070,-0.029,-0.040,0.035,-0.119,-0.249,-0.304,-0.259,-0.180
-0.062,-0.078,-0.016,0.070,-0.023,-0.047,0.032,-0.121,-0.259,-0.314,-0.263,-0.183
-0.057,-0.081,-0.024,0.069,-0.017,-0.052,0.029,-0.118,-0.269,-0.324,-0.267,-0.186
-0.047,-0.079,-0.032,0.063,-0.008,-0.056,0.030,-0.115,-0.270,-0.325,-0.270,-0.185
-0.040,-0.080,-0.040,0.060,0.000,-0.060,0.030,-0.115,-0.270,-0.325,-0.270,-0.185
-0.048,-0.092,-0.045,0.071,-0.001,-0.068,0.026,-0.115,-0.270,-0.329,-0.270,-0.185
-0.052,-0.097,-0.045,0.075,-0.003,-0.071,0.024,-0.115,-0.269,-0.330,-0.269,-0.184
-0.048,-0.093,-0.045,0.071,-0.001,-0.069,0.026,-0.115,-0.275,-0.332,-0.273,-0.188
-0.053,-0.098,-0.045,0.076,-0.004,-0.072,0.024,-0.115,-0.287,-0.335,-0.282,-0.197
-0.070,-0.115,-0.045,0.093,-0.012,-0.080,0.020,-0.115,-0.290,-0.335,-0.285,-0.200
-0.075,-0.120,-0.045,0.098,-0.015,-0.082,0.020,-0.115,-0.290,-0.335,-0.285,-0.200
-0.075,-0.120,-0.045,0.098,-0.015,-0.082,0.020,-0.115,-0.290,-0.335,-0.285,-0.200
-0.075,-0.120,-0.045,0.098,-0.015,-0.082,0.019,-0.115,-0.290,-0.335,-0.285,-0.200
-0.075,-0.120,-0.045,0.098,-0.015,-0.082,0.022,-0.115,-0.290,-0.335,-0.285,-0.200
-0.075,-0.120,-0.045,0.098,-0.015,-0.082,0.035,-0.115,-0.290,-0.335,-0.285,-0.200
-0.075,-0.120,-0.045,0.098,-0.015,-0.082,0.049,-0.115,-0.290,-0.335,-0.285,-0.200
-0.075,-0.120,-0.045,0.098,-0.015,-0.082,0.048,-0.112,-0.290,-0.335,-0.285,-0.200
-0.075,-0.120,-0.045,0.098,-0.015,-0.082,0.045,-0.109,-0.290,-0.335,-0.285,-0.200
-0.075,-0.120,-0.045,0.098,-0.015,-0.082,0.044,-0.110,-0.290,-0.335,-0.285,-0.200
-0.075,-0.120,-0.045,0.098,-0.015,-0.082,0.040,-0.110,-0.290,-0.335,-0.285,-0.200
-0.075,-0.120,-0.045,0.098,-0.015,-0.082,0.040,-0.110,-0.290,-0.335,-0.285,-0.204
-0.078,-0.123,-0.045,0.101,-0.016,-0.084,0.037,-0.110,-0.290,-0.335,-0.285,-0.205
-0.081,-0.126,-0.045,0.104,-0.017,-0.085,0.035,-0.110,-0.290,-0.335,-0.285,-0.205
-0.080,-0.125,-0.045,0.103,-0.017,-0.085,0.034,-0.110,-0.290,-0.335,-0.285,-0.205
-0.080,-0.125,-0.045,0.103,-0.017,-0.085,0.030,-0.110,-0.290,-0.335,-0.285,-0.205
-0.080,-0.125,-0.045,0.103,-0.017,-0.085,0.030,-0.110,-0.290,-0.335,-0.285,-0.205
-0.080,-0.125,-0.045,0.103,-0.017,-0.085,0.027,-0.110,-0.290,-0.335,-0.285,-0.205
-0.080,-0.125,-0.045,0.103,-0.017,-0.085,0.025,-0.110,-0.290,-0.335,-0.285,-0.205
-0.080,-0.125,-0.045,0.103,-0.017,-0.085,0.024,-0.110,-0.290,-0.335,-0.285,-0.205
-0.080,-0.125,-0.045,0.103,-0.017,-0.085,0.020,-0.110,-0.290,-0.335,-0.285,-0.205
-0.080,-0.125,-0.045,0.103,-0.017,-0.085,0.020,-0.109,-0.291,-0.331,-0.285,-0.205
-0.080,-0.127,-0.046,0.104,-0.016,-0.087,0.018,-0.114,-0.279,-0.326,-0.287,-0.207
-0.079,-0.118,-0.040,0.099,-0.019,-0.079,0.012,-0.096,-0.262,-0.325,-0.293,-0.213
